6.877229737643477847e+01,6.966248438354026007e+01,7.052902709455766228e+01,7.135865151870071088e+01,7.213982587647380740e+01,7.286367318653861958e+01,7.352347349105957619e+01,7.411465555945967765e+01,7.463449822362771613e+01,7.508213037791833244e+01,7.545857246037324728e+01,7.576677793394237881e+01,7.601085343952526330e+01,7.619619153587882465e+01,7.632851663152963795e+01,7.641371905988913227e+01,7.645752322948388269e+01,7.646557058639807281e+01,7.644292183961896114e+01,7.639447177324902327e+01,7.632453443429375284e+01,7.623717498243148327e+01,7.613587784024362293e+01,7.602429335519637732e+01,7.590565706254392353e+01,7.578303857265558463e+01,7.565892675880378704e+01,7.553572753181855148e+01,7.541510014054813382e+01,7.529827242914032581e+01,7.518643905676583472e+01,7.508047942531429442e+01,7.498118167798861577e+01,7.488933395799172388e+01,7.480570781603810815e+01,7.473114946904037481e+01,7.466656320762083965e+01,7.461284170765986801e+01,7.457083118607010874e+01,7.454123458362614940e+01,7.452458709104396917e+01,7.452126195635199224e+01,7.453150118099476629e+01,7.455543750488014609e+01,7.459310909073163032e+01,7.464444542047318976e+01,7.470927227297573836e+01,7.478725696884515628e+01,7.487794321464824066e+01,7.498071708831108140e+01,7.509478215038650717e+01,7.521915114780978229e+01,7.535264601389864936e+01,7.549391446084173651e+01
7.564158760833919359e+01,7.579398961505427224e+01,7.594979308190833933e+01,7.610725579761069071e+01,7.626496740064027335e+01,7.642143456703365700e+01,7.657516397282736875e+01,7.672491118138518118e+01,7.686934879362848960e+01,7.700731533536348650e+01,7.713764933239635013e+01,7.725935523541814121e+01,7.737152045756228347e+01,7.747331537440463478e+01,7.756407628640587859e+01,7.764322245646911824e+01,7.771033907238231109e+01,7.776501132193332921e+01,7.780699031779496977e+01,7.783627605996720433e+01,7.785278558600765564e+01,7.785651889591630948e+01,7.784772487702039712e+01,7.782656945420472994e+01,7.779330151479659605e+01,7.774833587100805232e+01,7.769208733505115561e+01,7.762488775669555707e+01,7.754740083548061591e+01,7.746020730850315772e+01,7.736388791286015021e+01,7.725910634809089572e+01,7.714644335129227670e+01,7.702681150933084098e+01,7.690079155930351362e+01,7.676904720074958277e+01,7.663240805809323319e+01,7.649128894354650754e+01,7.634660244397596784e+01,7.619876337159367097e+01,7.604843542593894767e+01,7.589611638166628893e+01,7.574238697587257718e+01,7.558766202076989771e+01,7.543252225345514717e+01,7.527724144998829559e+01,7.512231738502383394e+01,7.496807361208713871e+01,7.481484198094793214e+01,7.466289626766612741e+01,7.451248618919341027e+01,7.436384155149528397e+01,7.421716395330679461e+01,7.407261019364409549e+01
7.393034619739205482e+01,7.379050470445851317e+01,7.365322675099555738e+01,7.351849574451472336e+01,7.338650249863357544e+01,7.325724701335208522e+01,7.313081225111268679e+01,7.300719821191538017e+01,7.288640489576013692e+01,7.276834934020457979e+01,7.265311450769111445e+01,7.254061743577730681e+01,7.243085812446318528e+01,7.232383657374873565e+01,7.221938685874911812e+01,7.211759194190676681e+01,7.201845182322168171e+01,7.192188354025144292e+01,7.182780413055361635e+01,7.173637951901304177e+01,7.164744378074492204e+01,7.156099691574920030e+01,7.147712188646835330e+01,7.139581869290232419e+01,7.131700437260872150e+01,7.124076188802999354e+01,7.116700827672367780e+01,7.109590946357461405e+01,7.102729952369799094e+01,7.096134438197861982e+01,7.089796107597408081e+01,7.083723256812680802e+01,7.077907589599439575e+01,7.072357402201922127e+01,7.067072694620129880e+01,7.062045170609822264e+01,7.057283126415242691e+01,7.052778265792144907e+01,7.048530588740533176e+01,7.044540095260404655e+01,7.040798489107518776e+01,7.037314066526118950e+01,7.034078531271961765e+01,7.031083587100805232e+01,7.028329234012649351e+01,7.025807175763254975e+01,7.023517412352620681e+01,7.021451647536504481e+01,7.019601585070664385e+01,7.017950632466620675e+01,7.016507085968611079e+01,7.015262649332397871e+01,7.014192433825252238e+01,7.013296439447177022e+01
7.012566369953933076e+01,7.011993929101274148e+01,7.011562524400719099e+01,7.011263859608027360e+01,7.011089638478956942e+01,7.011031564769267277e+01,7.011073045990474384e+01,7.011214082142579684e+01,7.011429784492855788e+01,7.011720153041305537e+01,7.012068595299446372e+01,7.012466815023034883e+01,7.012914812212072491e+01,7.013387698133833226e+01,7.013893769032560499e+01,7.014408136175528341e+01,7.014922503318497604e+01,7.015436870461466867e+01,7.015942941360194141e+01,7.016432419770438855e+01,7.016897009447959022e+01,7.017320117904272081e+01,7.017701745139376612e+01,7.018041891153276879e+01,7.018332259701726628e+01,7.018556258296244721e+01,7.018722183181073149e+01,7.018821738111969921e+01,7.018846626844695891e+01,7.018796849379245373e+01,7.018664109471383483e+01,7.018448407121107380e+01,7.018158038572656210e+01,7.017768115093308268e+01,7.017295229171547533e+01,7.016739380807372584e+01,7.016083977512298020e+01,7.015345611774812085e+01,7.014507691106426535e+01,7.013586807995628192e+01,7.012574666198173645e+01,7.011471265714062895e+01,7.010284902787537931e+01,7.009015577418600174e+01,7.007654993363004792e+01,7.006219743109237186e+01,7.004701530413055366e+01,7.003108651518701322e+01,7.001441106426173633e+01,6.999698895135473720e+01,6.997898610135082720e+01,6.996031955180761486e+01,6.994107226516749165e+01,6.992132720387289169e+01
6.990100140548138086e+01,6.988026079487779896e+01,6.985918833450458010e+01,6.983770106191927596e+01,6.981588193956430644e+01,6.979389689232452554e+01,6.977166295775748495e+01,6.974926309830561877e+01,6.972686323885375259e+01,6.970429745451707504e+01,6.968181463262280317e+01,6.965933181072851710e+01,6.963701491371905661e+01,6.961486394159445013e+01,6.959279593191223512e+01,6.957105977199968549e+01,6.954957249941438135e+01,6.952833411415633691e+01,6.950751054111033511e+01,6.948710178027641859e+01,6.946710783165457315e+01,6.944752869524478456e+01,6.942853029593190683e+01,6.940994670883111439e+01,6.939202682126962429e+01,6.937460470836262516e+01,6.935784629499492837e+01,6.934166861872415666e+01,6.932623760443507877e+01,6.931138732724292595e+01,6.929728371203248116e+01,6.928392675880378704e+01,6.927123350511439526e+01,6.925936987584914561e+01,6.924825290856563242e+01,6.923788260326384147e+01,6.922834192238619266e+01,6.921963086593270020e+01,6.921174943390333567e+01,6.920469762629812749e+01,6.919847544311704723e+01,6.919308288436010912e+01,6.918851995002734157e+01,6.918486960256110763e+01,6.918204887951901583e+01,6.918014074334350028e+01,6.917906223159209844e+01,6.917889630670727286e+01,6.917964296868899510e+01,6.918121925509487369e+01,6.918370812836730011e+01,6.918710958850628856e+01,6.919134067306943336e+01,6.919648434449911178e+01
6.920262356523775793e+01,6.920950944795815474e+01,6.921739087998750506e+01,6.922618489888343163e+01,6.923580854220350034e+01,6.924626180994769697e+01,6.925771062700086134e+01,6.926998906847818205e+01,6.928309713437963069e+01,6.929703482470524989e+01,6.931188510189740271e+01,6.932748204107129197e+01,6.934399156711174328e+01,6.936124775513391683e+01,6.937925060513781261e+01,6.939808307956586475e+01,6.941766221597563913e+01,6.943798801436714996e+01,6.945897751229796313e+01,6.948079663465293265e+01,6.950319649410478462e+01,6.952634301553838725e+01,6.955023619895369791e+01,6.957462715702351375e+01,6.959976477707505182e+01,6.962556609666589225e+01,6.965186519091122364e+01,6.967882798469588579e+01,6.970637151557743039e+01,6.973449578355588585e+01,6.976320078863120955e+01,6.979248653080347253e+01,6.982227004763021228e+01,6.985263430155384867e+01,6.988349633013196183e+01,6.991485613336458016e+01,6.994671371125167525e+01,6.997906906379324710e+01,7.001192219098930991e+01,7.004519013039744380e+01,7.007895584446006865e+01,7.011313637073475036e+01,7.014781467166395146e+01,7.018290778480519521e+01,7.021841571015851002e+01,7.025425548528149022e+01,7.029059303505896139e+01,7.032726243460608373e+01,7.036434664636527714e+01,7.040176270789412172e+01,7.043959358163505158e+01,7.047775630514563261e+01,7.051616791598344491e+01,7.055499433903334250e+01
7.059406964941047136e+01,7.063347680955727981e+01,7.067313285703131953e+01,7.071303779183260474e+01,7.075319161396112122e+01,7.079359432341689740e+01,7.083424592019989063e+01,7.087506344186773788e+01,7.091604688842041071e+01,7.095719625985789492e+01,7.099851155618021892e+01,7.103990981494496282e+01,7.108139103615211241e+01,7.112303818224408758e+01,7.116468532833607696e+01,7.120641543687047204e+01,7.124814554540486711e+01,7.128987565393924797e+01,7.133168872491607715e+01,7.137341883345045801e+01,7.141514894198486729e+01,7.145679608807682825e+01,7.149844323416881764e+01,7.153992445537598144e+01,7.158140567658313103e+01,7.162288689779028061e+01,7.166420219411260462e+01,7.170543452799252293e+01,7.174658389943000714e+01,7.178773327086750555e+01,7.182879967986258407e+01,7.186978312641525690e+01,7.191076657296792973e+01,7.195166705707816845e+01,7.199265050363084129e+01,7.203355098774108001e+01,7.207453443429375284e+01,7.211551788084641146e+01,7.215658428984148998e+01,7.219781662372140829e+01,7.223913192004374650e+01,7.228061314125088188e+01,7.232226028734287127e+01,7.236415632076207771e+01,7.240630124150855806e+01,7.244869504958226969e+01,7.249150366986805238e+01,7.253464413992348625e+01,7.257819942219099119e+01,7.262225247911298709e+01,7.266680331068947396e+01,7.271185191692043759e+01,7.275756422269073198e+01,7.280385726555790882e+01
7.285081400796440221e+01,7.289851741235261784e+01,7.294696747872258413e+01,7.299608124463185277e+01,7.304610759740768344e+01,7.309679764972281646e+01,7.314831732646209161e+01,7.320058366518310322e+01,7.325359666588585128e+01,7.330727336612790168e+01,7.336169672835168853e+01,7.341661786522996636e+01,7.347211973920512662e+01,7.352811938783477785e+01,7.358445088623410868e+01,7.364103127196064236e+01,7.369786054501444994e+01,7.375468152182401127e+01,7.381149420238932635e+01,7.386815755055829413e+01,7.392454712266730610e+01,7.398055506754118937e+01,7.403605694151636385e+01,7.409092830092919257e+01,7.414504470211603859e+01,7.419829829390177167e+01,7.425057292886702953e+01,7.430175245959242147e+01,7.435172903490280305e+01,7.440040309986726186e+01,7.444768339579918859e+01,7.449346373077223404e+01,7.453766396306707520e+01,7.458019930506753781e+01,7.462099608612477653e+01,7.465999258218162993e+01,7.469713486765050448e+01,7.473240220192083427e+01,7.476576969625985214e+01,7.479725394315609321e+01,7.482690472007496396e+01,7.485476350823768144e+01,7.488092986257515804e+01,7.490550333801827776e+01,7.492861667447490959e+01,7.495040261185289410e+01,7.497102707503709951e+01,7.499063110017959843e+01,7.500938890840946272e+01,7.502746642461154636e+01,7.504502957367066074e+01,7.506224428047161723e+01,7.507926817365505201e+01,7.509626717810571961e+01
7.511338232997579212e+01,7.513072148044038556e+01,7.514839248067463018e+01,7.516645340438823553e+01,7.518492084406965148e+01,7.520377820723042817e+01,7.522296742016087023e+01,7.524239722417428311e+01,7.526195147185133294e+01,7.528151401577262902e+01,7.530096870851878066e+01,7.532019110642619353e+01,7.533903187709847771e+01,7.535735828062779262e+01,7.537502928086203724e+01,7.539170473178731413e+01,7.540721870851878350e+01,7.542123936128680839e+01,7.543335187787928930e+01,7.544314144608418360e+01,7.545019325368939178e+01,7.545417545092527689e+01,7.545467322557976786e+01,7.545135472788319930e+01,7.544397107050832574e+01,7.543227336612791589e+01,7.541609568985711576e+01,7.539527211681112817e+01,7.536967820332631618e+01,7.533922269071602784e+01,7.530397194893419055e+01,7.526414168033107899e+01,7.522014669711876422e+01,7.517270047630204033e+01,7.512277367845710785e+01,7.507160244397596216e+01,7.502061372686812035e+01,7.497138381353947523e+01,7.492553047161709401e+01,7.488470465370501472e+01,7.485045775747637720e+01,7.482425821816195821e+01,7.480741684235184152e+01,7.480109510423986308e+01,7.480633003435622186e+01,7.482397614585774193e+01,7.485469713828375404e+01,7.489879167642695279e+01,7.495612702037948338e+01,7.502603947060202927e+01,7.510727629421410256e+01,7.519807868743656343e+01,7.529619007183571000e+01,7.539900542671975359e+01
7.550386995393145639e+01,7.560790485671898864e+01,7.570878718669477792e+01,7.580435992035606318e+01,7.589321269618179144e+01,7.597443292730538644e+01,7.604768876395722543e+01,7.611331205590693116e+01,7.617221539002109409e+01,7.622614097759037577e+01,7.627774361677208503e+01,7.633034180526274781e+01,7.638849847739517429e+01,7.645735730459904289e+01,7.654280862028579691e+01,7.665099164519403985e+01,7.678829448738970598e+01,7.696027563051457321e+01,7.717174689622862616e+01,7.742602678222847601e+01,7.772469157491998715e+01,7.806749238697588567e+01,7.845218923245101905e+01,7.887438510189740271e+01,7.932777484969157911e+01,7.980381334426486717e+01,8.029204731787304183e+01,8.078011536659640512e+01,8.125416276255174353e+01,8.169859256656516777e+01,8.209697821503867488e+01,8.243264425704694531e+01,8.268924709143438179e+01,8.285210236589365707e+01,8.290934645115952151e+01,8.285044311704537279e+01,8.266999980479425858e+01,8.236585949090343206e+01,8.193976438666354056e+01,8.139752186304365011e+01,8.074875556336378679e+01,8.000665651596784755e+01,7.918756832201141549e+01,7.831107011790427919e+01,7.739914695088624796e+01,7.647643866635434051e+01,7.556833177168736881e+01,7.470032892168346450e+01,7.389638137346763358e+01,7.317718825642228353e+01,7.255845436089639122e+01,7.204972866401188014e+01,7.165267041461700614e+01,7.136114039197315151e+01
7.116086905598501744e+01,7.103111579604905046e+01,7.094450300616850313e+01,7.086867533380183204e+01,7.076878855313501049e+01,7.061024732568127149e+01,7.036277035995939855e+01,7.000321113453581745e+01,6.951564086046694513e+01,6.889433512922620650e+01,6.814792203482471677e+01,6.730294955883502439e+01,6.640554481923948060e+01,6.551544077457641890e+01,6.469909034121964453e+01,6.401630944014992508e+01,6.352517178105723872e+01,6.327047708284532490e+01,6.327545482939018484e+01,6.353014952760209866e+01,6.397814671663934405e+01,6.453233583196688983e+01,6.509067306941517472e+01,6.556024049348012284e+01,6.587134965253378027e+01,6.599247481845867469e+01,6.594435660185835957e+01,6.583235730459905710e+01,6.585973491059577611e+01,6.632830678535175650e+01,6.760236101350824356e+01,7.007065960021864726e+01,7.412876747091435448e+01,8.014478898258765582e+01,8.837988990395878375e+01,9.891280159287889262e+01,1.115587666900913746e+02,1.258896989927383743e+02,1.414020164753650590e+02,1.576269813383306087e+02,1.741365073787772531e+02,1.904386273131881069e+02,2.057037167174201784e+02,2.187371164207074514e+02,2.281865386116967613e+02,2.328822128523464130e+02,2.322931795112048405e+02,2.266683259155149983e+02,2.168787577106270419e+02,2.039698016709612034e+02,1.888955258842821081e+02,1.722283712032482299e+02,1.542811060357616952e+02,1.354038318888108279e+02
1.161142344030608342e+02,9.720211603029595437e+01,7.961358046380887288e+01,6.417144920746467562e+01,5.144086241898961731e+01,4.169277543530881758e+01,3.492552900757398504e+01,3.099725735925665404e+01,2.966736940735535200e+01,3.056585265870227275e+01,3.321484344499101837e+01,3.705849340204575526e+01,4.150693956430077947e+01,4.601843718279066309e+01,5.013669282423674645e+01,5.350164948856095037e+01,5.587935308815492164e+01,5.719015967830092961e+01,5.749960958850628856e+01,5.700017568517218081e+01,5.595982665729680150e+01,5.466893105333021907e+01,5.340126493323963075e+01,5.240239712657141524e+01,5.185733387990943299e+01,5.186645974857500363e+01,5.243558210353712923e+01,5.348007925353322634e+01,5.485476692433825718e+01,5.638625361130631575e+01,5.790114780979153153e+01,5.923767275708597424e+01,6.027138478956820933e+01,6.092429921136879045e+01,6.117152728976341081e+01,6.104293550402124424e+01,6.060987155461857157e+01,5.996359412821114176e+01,5.920199890684782673e+01,5.842132232372921408e+01,5.770203794799719077e+01,5.710636761146248830e+01,5.667081478878738210e+01,5.641197196845475759e+01,5.632900952604045131e+01,5.640865347075818192e+01,5.663431131412509245e+01,5.698773131881002740e+01,5.745066174748185261e+01,5.800651011165769688e+01,5.864449129382369819e+01,5.935464980089014375e+01,6.012703013976732791e+01,6.095167681736550946e+01
6.181531584289842129e+01,6.270467322557976075e+01,6.360647497462326072e+01,6.450661747481845509e+01,6.538933786210667165e+01,6.624136214570158643e+01,6.705024595924103892e+01,6.780644862184742294e+01,6.850208870149137397e+01,6.913227141407043064e+01,6.969384418677286419e+01,7.018589443273211259e+01,7.060925177637230377e+01,7.096681990317796362e+01,7.126274693526977444e+01,7.150275728117436813e+01,7.169299016163036242e+01,7.183966775981886599e+01,7.194901225892090224e+01,7.202683102990552300e+01,7.207851663152965216e+01,7.210888088545327435e+01,7.212215487623957699e+01,7.212215487623957699e+01,7.211219938314984290e+01,7.209510912001250915e+01,7.207378777231201639e+01,7.205055828843602228e+01,7.202774361677208503e+01,7.200692004372609745e+01,7.198949793081908410e+01,7.197630690247521557e+01,7.196817658311860555e+01,7.196543882251894786e+01,7.196842547044586524e+01,7.197763430155383446e+01,7.199339716561256353e+01,7.201621183727650077e+01,7.204665905364255707e+01,7.208540251425003476e+01,7.213310591863825039e+01,7.219035000390412904e+01,7.225763254470211905e+01,7.233536835324431991e+01,7.242364039197313730e+01,7.252269754821583092e+01,7.263245685952995245e+01,7.275283536347309621e+01,7.288375009760288492e+01,7.302486921214961058e+01,7.317577789490123052e+01,7.333581244631842821e+01,7.350439212930427857e+01,7.368052139454987071e+01
7.386316321152494879e+01,7.405114780979153011e+01,7.424312290153821436e+01,7.443765323651129506e+01,7.463330356445693781e+01,7.482859715390021904e+01,7.502209875458734700e+01,7.521242289372999323e+01,7.539825876473803135e+01,7.557828726477708869e+01,7.575134691965331513e+01,7.591652514250020545e+01,7.607266045912392372e+01,7.621900620754274769e+01,7.635473276333254944e+01,7.647917642695401241e+01,7.659192238619505133e+01,7.669238990395878375e+01,7.678033009291793576e+01,7.685549406574530451e+01,7.691788182244086158e+01,7.696732743811978139e+01,7.700399683766691794e+01,7.702805594596706840e+01,7.703967068790505834e+01,7.703917291325058159e+01,7.702681150933084098e+01,7.700308425080035590e+01,7.696824002498634343e+01,7.692277660654329452e+01,7.686727473256813425e+01,7.680214921527290528e+01,7.672806375419692415e+01,7.664568204887953584e+01,7.655541891153275458e+01,7.645810396658077934e+01,7.635431795112049258e+01,7.624472456469119663e+01,7.612998750683220806e+01,7.601068751464043771e+01,7.588748828765518795e+01,7.576080463808854404e+01,7.563138322792222823e+01,7.549963886936832580e+01,7.536600296712737190e+01,7.523101477707504614e+01,7.509506422269072345e+01,7.495854952369798241e+01,7.482183571484344498e+01,7.468524634965254450e+01,7.454908507066448919e+01,7.441361901694386916e+01,7.427907882408058526e+01,7.414570010541112310e+01
7.401365708206451188e+01,7.388313227141408390e+01,7.375429159834466475e+01,7.362725950651987716e+01,7.350223510580151753e+01,7.337928476614352746e+01,7.325865737487312401e+01,7.314026996954790150e+01,7.302428847505271392e+01,7.291087881627235845e+01,7.280004099320683508e+01,7.269194093074101204e+01,7.258641270399000689e+01,7.248370520028110775e+01,7.238373545717186630e+01,7.228658643710471665e+01,7.219234110252206449e+01,7.210091649098148991e+01,7.201231260248303556e+01,7.192669536191145596e+01,7.184406476926680796e+01,7.176433786210667165e+01,7.168768056531584421e+01,7.161409287889436825e+01,7.154349184039978127e+01,7.147604337471695146e+01,7.141166451940345894e+01,7.135043823690169518e+01,7.129253045209651418e+01,7.123777524010307616e+01,7.118625556336380100e+01,7.113805438432108019e+01,7.109317170297494215e+01,7.105169048176779256e+01,7.101352775825721153e+01,7.097868353244321327e+01,7.094724076676817504e+01,7.091911649878973378e+01,7.089431072850786109e+01,7.087282345592254273e+01,7.085457171859140146e+01,7.083963847895682875e+01,7.082777484969159332e+01,7.081906379323808665e+01,7.081342234715391726e+01,7.081076754899665104e+01,7.081109939876631643e+01,7.081416900913563950e+01,7.082005934254705437e+01,7.082860447411573546e+01,7.083980440384164012e+01,7.085341024439759394e+01,7.086942199578356849e+01,7.088767373311470976e+01
7.090808249394864049e+01,7.093056531584289814e+01,7.095487331147029408e+01,7.098108944327321979e+01,7.100888186148200987e+01,7.103825056609667854e+01,7.106902963223238601e+01,7.110113609744671237e+01,7.113432107441244057e+01,7.116858456312954218e+01,7.120376063871322003e+01,7.123960041383620023e+01,7.127610388849848277e+01,7.131310513781527050e+01,7.135052119934411508e+01,7.138818614820020514e+01,7.142601702194113500e+01,7.146384789568206486e+01,7.150159580698056061e+01,7.153917779339424499e+01,7.157642793003827819e+01,7.161326325447022612e+01,7.164968376669010297e+01,7.168552354181308317e+01,7.172061665495432692e+01,7.175504606855625411e+01,7.178856289529163348e+01,7.182125009760287071e+01,7.185294175060514021e+01,7.188363785429844199e+01,7.191317248379792204e+01,7.194162860154604289e+01,7.196884028265792210e+01,7.199489048957602222e+01,7.201953033497306933e+01,7.204292574373390323e+01,7.206499375341611824e+01,7.208573436401967172e+01,7.210498165065979492e+01,7.212290153822128502e+01,7.213941106426173633e+01,7.215442726633872894e+01,7.216811606933708845e+01,7.218031154837198926e+01,7.219117962832827118e+01,7.220055438432108019e+01,7.220860174123527031e+01,7.221532169907082732e+01,7.222063129538534554e+01,7.222461349262123065e+01,7.222735125322088834e+01,7.222876161474195555e+01,7.222901050206918683e+01,7.222809791520262479e+01
7.222602385414228365e+01,7.222278831888812078e+01,7.221855723432497598e+01,7.221333060045287766e+01,7.220710841727181162e+01,7.219997364722418354e+01,7.219209221519481900e+01,7.218338115874132654e+01,7.217392344030609763e+01,7.216380202233153796e+01,7.215301690481767594e+01,7.214173401264933716e+01,7.212995334582650742e+01,7.211775786679159239e+01,7.210514757554463472e+01,7.209228839697040314e+01,7.207909736862653460e+01,7.206574041539784048e+01,7.205221753728430656e+01,7.203852873428594705e+01,7.202492289372999323e+01,7.201123409073163373e+01,7.199762825017569412e+01,7.198418833450458010e+01,7.197083138127587176e+01,7.195772331537440891e+01,7.194486413680019155e+01,7.193225384555321966e+01,7.191997540407589895e+01,7.190811177481066352e+01,7.189657999531506505e+01,7.188554599047395754e+01,7.187500976028734101e+01,7.186497130475521544e+01,7.185543062387758084e+01,7.184647068009682869e+01,7.183809147341298740e+01,7.183037596626846266e+01,7.182324119622083458e+01,7.181677012571250884e+01,7.181096275474349966e+01,7.180590204575622693e+01,7.180150503630828496e+01,7.179777172639963112e+01,7.179478507847271374e+01,7.179254509252753280e+01,7.179105176856407411e+01,7.179030510658235187e+01,7.179030510658235187e+01,7.179105176856407411e+01,7.179254509252753280e+01,7.179478507847271374e+01,7.179785468884205102e+01,7.180158799875069064e+01
7.180606797064106672e+01,7.181129460451316504e+01,7.181735086280940550e+01,7.182407082064496251e+01,7.183145447801983607e+01,7.183966775981886599e+01,7.184854474115718403e+01,7.185808542203483285e+01,7.186828980245178400e+01,7.187924084485047160e+01,7.189077262434607007e+01,7.190296810338097089e+01,7.191582728195518825e+01,7.192926719762630228e+01,7.194328785039432717e+01,7.195788924025923450e+01,7.197298840477864701e+01,7.198866830639495618e+01,7.200484598266572789e+01,7.202152143359100478e+01,7.203869465917077264e+01,7.205628269696259736e+01,7.207436850940892725e+01,7.209278617162489411e+01,7.211170160849536614e+01,7.213086593269306945e+01,7.215044506910282962e+01,7.217035605528226938e+01,7.219059889123137452e+01,7.221117357695011663e+01,7.223191418755369853e+01,7.225298664792691739e+01,7.227430799562739594e+01,7.229587823065510577e+01,7.231761439056766960e+01,7.233951647536503060e+01,7.236166744748965129e+01,7.238390138205669189e+01,7.240630124150855806e+01,7.242886702584524983e+01,7.245143281018194159e+01,7.247416451940345894e+01,7.249706215350980187e+01,7.251995978761614481e+01,7.254285742172250195e+01,7.256592098071368468e+01,7.258898453970485320e+01,7.261204809869603594e+01,7.263519462012961014e+01,7.265834114156321277e+01,7.268157062543922109e+01,7.270480010931522941e+01,7.272802959319123772e+01,7.275125907706723183e+01
7.277448856094324015e+01,7.279780100726165415e+01,7.282103049113767668e+01,7.284434293745607647e+01,7.286773834621692458e+01,7.289105079253533859e+01,7.291444620129617249e+01,7.293784161005700639e+01,7.296123701881784029e+01,7.298471539002109409e+01,7.300827672366673937e+01,7.303183805731242728e+01,7.305539939095807256e+01,7.307912664948857184e+01,7.310285390801905692e+01,7.312674709143436758e+01,7.315064027484969245e+01,7.317469938314985711e+01,7.319884145389241326e+01,7.322314944951980920e+01,7.324754040758959661e+01,7.327209729054423804e+01,7.329673713594128515e+01,7.332162586866557774e+01,7.334668052627471013e+01,7.337190110876865390e+01,7.339728761614742325e+01,7.342284004841103240e+01,7.344864136800188703e+01,7.347469157491997294e+01,7.350090770672289864e+01,7.352737272585305561e+01,7.355408663231045807e+01,7.358104942609510601e+01,7.360826110720701365e+01,7.363563871320371845e+01,7.366334816897008864e+01,7.369130651206371851e+01,7.371954692746155047e+01,7.374802793394236744e+01,7.377679101272742912e+01,7.380581957132820037e+01,7.383512190598891323e+01,7.386469801670962454e+01,7.389456449597876997e+01,7.392470475130788543e+01,7.395512707894120297e+01,7.398583977512298304e+01,7.401683454360896519e+01,7.404810308815491737e+01,7.407966200124933209e+01,7.411150298664793468e+01,7.414361774810650729e+01,7.417600628562506415e+01
7.420866859920356262e+01,7.424159639259779908e+01,7.427478966580777353e+01,7.430824012258921130e+01,7.434193946669790876e+01,7.437587940188960545e+01,7.441005992816428716e+01,7.444446445303350401e+01,7.447907970250645349e+01,7.451390235808541718e+01,7.454891748653081152e+01,7.458411347310065764e+01,7.461947621417975540e+01,7.465498994690403833e+01,7.469064720465371465e+01,7.472642060982276746e+01,7.476230186616693629e+01,7.479827438119778549e+01,7.483432156242680833e+01,7.487041022487701980e+01,7.490653207230421629e+01,7.494265391973141277e+01,7.497876747091434879e+01,7.501483954087609618e+01,7.505085353712813401e+01,7.508677627469353411e+01,7.512259116108378976e+01,7.515826501132194437e+01,7.519378952916375169e+01,7.522911493714376263e+01,7.526423293901773093e+01,7.529911034980869999e+01,7.533372228078394528e+01,7.536802725072226394e+01,7.540199207464668518e+01,7.543567482626689014e+01,7.546885980323261833e+01,7.550171293042868115e+01,7.553415124541268710e+01,7.556609178574217367e+01,7.559753455141721190e+01,7.562847954243773074e+01,7.565884379636136714e+01,7.568871027563051257e+01,7.571799601780277555e+01,7.574661806043569356e+01,7.577465936597174334e+01,7.580211993441086804e+01,7.582891680331069040e+01,7.585504997267121041e+01,7.588051944249239966e+01,7.590532521277427236e+01,7.592955024595924840e+01,7.595302861716250220e+01
7.597592625126884514e+01,7.599816018583588573e+01,7.601973042086360977e+01,7.604071991879440873e+01,7.606112867962833946e+01,7.608095670336535932e+01,7.610020399000546831e+01,7.611887053954869486e+01,7.613703931443741624e+01,7.615471031467167506e+01,7.617188354025142871e+01,7.618864195361911129e+01,7.620498555477473701e+01,7.622099730616069735e+01,7.623676017021942641e+01,7.625219118450847589e+01,7.626737331147029408e+01,7.628238951354728670e+01,7.629740571562427931e+01,7.631225599281643213e+01,7.632710627000859915e+01,7.634203950964315766e+01,7.635697274927775879e+01,7.637215487623956278e+01,7.638741996564378667e+01,7.640293394237527025e+01,7.641869680643398510e+01,7.643479152026236534e+01,7.645105215897555695e+01,7.646764464745841394e+01,7.648440306082611073e+01,7.650149332396347290e+01,7.651866654954322655e+01,7.653600570000782000e+01,7.655342781291481913e+01,7.657084992582183247e+01,7.658818907628641171e+01,7.660536230186616535e+01,7.662228664011868773e+01,7.663887912860155893e+01,7.665497384242992496e+01,7.667057078160381423e+01,7.668542105879598125e+01,7.669960763644883173e+01,7.671279866479270027e+01,7.672499414382760108e+01,7.673602814866870858e+01,7.674573475443118298e+01,7.675411396111502427e+01,7.676091688139300118e+01,7.676614351526509950e+01,7.676954497540408795e+01,7.677112126180996654e+01,7.677062348715546136e+01
7.676813461388304916e+01,7.676340575466542759e+01,7.675643690950262510e+01,7.674706215350980187e+01,7.673528148668698634e+01,7.672101194659171597e+01,7.670433649566643908e+01,7.668517217146873577e+01,7.666360193644101173e+01,7.663970875302570107e+01,7.661357558366519527e+01,7.658536835324431991e+01,7.655525298664792899e+01,7.652322948387602253e+01,7.648962969469822326e+01,7.645461954399938520e+01,7.641836495666431972e+01,7.638103185757789504e+01,7.634286913406731401e+01,7.630395974857499652e+01,7.626455258842821650e+01,7.622481357851175687e+01,7.618490864371047167e+01,7.614492074646678077e+01,7.610493284922310409e+01,7.606511087686422456e+01,7.602562075427501043e+01,7.598629655657063608e+01,7.594730420863591291e+01,7.590856074802843523e+01,7.587006617474818881e+01,7.583165456391036230e+01,7.579332591551495568e+01,7.575508022956196896e+01,7.571666861872414245e+01,7.567817404544389603e+01,7.563934762239401266e+01,7.560018934957444969e+01,7.556045033965799007e+01,7.551996466775982242e+01,7.547840048411026714e+01,7.543542593893965886e+01,7.539046029515108671e+01,7.534323807292888375e+01,7.529317023893183602e+01,7.523985027719216134e+01,7.518291315296323774e+01,7.512203531271961765e+01,7.505695127664559152e+01,7.498747023112360921e+01,7.491342625126883092e+01,7.483471978215040110e+01,7.475131763879129210e+01,7.466327789490122768e+01
7.457081210470836652e+01,7.447437158389944045e+01,7.437469303896307338e+01,7.427283175216679467e+01,7.417015743343483791e+01,7.406830444288280546e+01,7.396904817677832966e+01,7.387427188256422994e+01,7.378580073397361616e+01,7.370541012727414909e+01,7.363464316389475073e+01,7.357482724291403997e+01,7.352720680096823003e+01,7.349269442492388293e+01,7.347211973920512662e+01,7.346581459358164068e+01,7.347419380026548197e+01,7.349692550948701353e+01,7.353301417193722500e+01,7.358113238853752591e+01,7.363887424845788132e+01,7.370341902865621364e+01,7.377163904505350445e+01,7.383997520887015753e+01,7.390497628250174955e+01,7.396338184196143573e+01,7.401239605293980617e+01,7.404988678066682439e+01,7.407450173733114696e+01,7.408563529710315265e+01,7.408342019989069627e+01,7.406862799640821038e+01,7.404285986179434076e+01,7.400869592800813734e+01,7.396991928242368886e+01,7.393154085656281893e+01,7.389953394627939076e+01,7.388052725072226679e+01,7.388153939251972702e+01,7.390959729054422667e+01,7.397141260638713334e+01,7.407278441477318154e+01,7.421779446786914036e+01,7.440842556804872743e+01,7.464456156789256625e+01,7.492412840634028726e+01,7.524341766221597538e+01,7.559711973920512662e+01,7.597791734988678058e+01,7.637638596080269338e+01,7.678107675489967221e+01,7.717946240337316510e+01,7.755743929101274148e+01,7.789999121574139451e+01
7.819118938861561219e+01,7.841485613336458016e+01,7.855597524791130581e+01,7.860152162879676041e+01,7.854170570781604965e+01,7.837005641446084780e+01,7.808408487545875687e+01,7.768561626454284408e+01,7.718120461466386928e+01,7.658213281799017125e+01,7.590350003904114828e+01,7.516412215975638844e+01,7.438573534004841292e+01,7.359175158116654814e+01,7.280601428906068406e+01,7.205163680018739569e+01,7.134844713828375973e+01,7.071204224252362280e+01,7.015212871866947353e+01,6.967202506441789467e+01,6.926716834543609025e+01,6.892652455688296698e+01,6.863308639806356837e+01,6.836437104708363677e+01,6.809432829702507206e+01,6.779425314281253634e+01,6.743552354181306896e+01,6.699225521199343802e+01,6.644403939251972702e+01,6.577594284375733480e+01,6.498199226985242660e+01,6.406359803232608385e+01,6.303984149293356154e+01,6.194971499960958994e+01,6.084548489107519487e+01,5.978937299914110071e+01,5.884443078004217398e+01,5.807288006558913196e+01,5.752781681892714971e+01,5.725155188568752607e+01,5.725238151011166110e+01,5.749960958850628856e+01,5.792188842039510632e+01,5.842464082142578263e+01,5.891660810494261113e+01,5.932063519950027342e+01,5.958611501522605636e+01,5.971138830327164726e+01,5.976448426641680811e+01,5.991796478488327438e+01,6.044311704536582397e+01,6.169253142812524970e+01,6.405779066135707467e+01,6.794010111657686934e+01
7.372002810962756314e+01,8.169436148200203718e+01,9.200368938861559798e+01,1.045575661747482030e+02,1.190195791364097886e+02,1.349218200983837335e+02,1.517507515421253856e+02,1.689679472163660989e+02,1.859669516670570886e+02,2.018791481221207107e+02,2.156094323416881480e+02,2.259465526665105415e+02,2.319115522760990302e+02,2.329817677832435834e+02,2.292401616303584717e+02,2.212093972046537544e+02,2.095946552666510456e+02,1.951343015538377585e+02,1.784090731631139590e+02,1.599416334816897347e+02,1.403309713437963637e+02,1.202739712657140672e+02,1.006044057937065901e+02,8.219578648395409459e+01,6.579502420551261821e+01,5.194527406886859211e+01,4.095606894666978803e+01,3.292447489654095705e+01,2.780154407745763478e+01,2.541222573592566647e+01,2.543545521980166768e+01,2.741079097368626449e+01,3.077740688685875270e+01,3.493382525181541354e+01,3.930926446474584424e+01,4.341756461310221482e+01,4.686880221753729359e+01,4.938920121808386199e+01,5.085680682439291900e+01,5.130314476458188011e+01,5.089579917232764217e+01,4.990024986335598811e+01,4.861682087920668494e+01,4.734168813929881736e+01,4.633701296166159267e+01,4.581103107675490094e+01,4.588320840165534520e+01,4.657594479581479163e+01,4.781872218318107315e+01,4.946386741625673977e+01,5.132803349730616560e+01,5.321957718435230333e+01,5.495929960178027329e+01,5.640284609978917274e+01
5.745149137190598765e+01,5.806541344577185271e+01,5.825954556102131932e+01,5.809445030061685600e+01,5.765972710236589194e+01,5.705244202389318531e+01,5.637380924494417656e+01,5.570845045678144913e+01,5.512356523776060158e+01,5.466229405793706775e+01,5.434454790349028031e+01,5.417447489654095705e+01,5.414294916842352734e+01,5.423752635277582357e+01,5.444078433669088213e+01,5.473944912938237195e+01,5.512190598891231730e+01,5.558151791988755974e+01,5.611247755133911852e+01,5.671312563441868804e+01,5.737682517373312407e+01,5.809693917388928952e+01,5.886351214179745739e+01,5.966575895994378698e+01,6.049040563754197564e+01,6.132500780822988418e+01,6.215712110564535919e+01,6.297264191457797011e+01,6.376161474193801126e+01,6.451491371905989070e+01,6.522590185055048551e+01,6.588877176544077940e+01,6.649962422893730718e+01,6.705679999219177034e+01,6.755938646833763528e+01,6.800813031935661002e+01,6.840510560630904990e+01,6.875321601467948085e+01,6.905627781681891975e+01,6.931827320996330855e+01,6.954318439134848973e+01,6.973491059576794271e+01,6.989726809557274123e+01,7.003382427578668512e+01,7.014798059654876283e+01,7.024288963067073155e+01,7.032145506363707455e+01,7.038658058093230352e+01,7.044116986804093017e+01,7.048820957288984346e+01,7.053043745607870108e+01,7.057025942843758060e+01,7.060974955102679473e+01,7.065056707269461356e+01
7.069395643007730712e+01,7.074091317248380051e+01,7.079243284922308987e+01,7.084926212227689746e+01,7.091189876629968580e+01,7.098100648083079989e+01,7.105724896540954205e+01,7.114112399469040326e+01,7.123329526821271429e+01,7.133409463574608367e+01,7.144393690950262510e+01,7.156282208948232437e+01,7.169075017568518149e+01,7.182772116811119645e+01,7.197332025454829818e+01,7.212746447255408100e+01,7.228990493480128521e+01,7.246014386663544826e+01,7.263784941828687636e+01,7.282260677754354106e+01,7.301366928242367749e+01,7.321053915827282310e+01,7.341222085578199597e+01,7.361788475052706815e+01,7.382626151713907348e+01,7.403633071757633388e+01,7.424685621144686820e+01,7.445665163582417279e+01,7.466453062778168714e+01,7.486936489810261719e+01,7.507004275005857608e+01,7.526552715311939323e+01,7.545483915046459344e+01,7.563710763644881752e+01,7.581149469040370548e+01,7.597717068790504413e+01,7.613347192941361641e+01,7.627973471539003469e+01,7.641554423362224213e+01,7.654040270945577618e+01,7.665389533067853733e+01,7.675593913484813413e+01,7.684620227219488697e+01,7.692476770516125839e+01,7.699146950886235174e+01,7.704647360818303525e+01,7.708986296556571460e+01,7.712180350589522959e+01,7.714246115405637738e+01,7.715216775981886599e+01,7.715108924806746415e+01,7.713964043101428558e+01,7.711815315842898144e+01,7.708712520496602849e+01
7.704697138283752622e+01,7.699818946669790876e+01,7.694136019364411538e+01,7.687706430077302855e+01,7.680571660029671932e+01,7.672798079175451846e+01,7.664443761224330842e+01,7.655566779886000006e+01,7.646208616381666445e+01,7.636435640665261815e+01,7.626281037713751232e+01,7.615802881236824362e+01,7.605042652455688312e+01,7.594041832591553032e+01,7.582841902865619943e+01,7.571484344499101837e+01,7.560002342468963832e+01,7.548420785507924791e+01,7.536780325212774301e+01,7.525105020691809443e+01,7.513420590302179392e+01,7.501752752401031898e+01,7.490122247598969807e+01,7.478552305379869836e+01,7.467063666354339091e+01,7.455676656320761708e+01,7.444409941828688204e+01,7.433283019052082352e+01,7.422312895291639734e+01,7.411516163035840066e+01,7.400906925899899136e+01,7.390500946747873456e+01,7.380308181072851426e+01,7.370341902865621364e+01,7.360610408370422419e+01,7.351119504958226969e+01,7.341877488873272739e+01,7.332900952604045131e+01,7.324181599906300733e+01,7.315736023268526367e+01,7.307555926446475780e+01,7.299666198172874942e+01,7.292058542203481863e+01,7.284741254782542796e+01,7.277714335910050636e+01,7.270986081830250214e+01,7.264564788787382099e+01,7.258442160537207144e+01,7.252634789568205065e+01,7.247142675880377283e+01,7.241965819473725219e+01,7.237120812836730011e+01,7.232591063480909099e+01,7.228393163894745044e+01
7.224527114078239265e+01,7.220992914031388921e+01,7.217798859998437422e+01,7.214928359490905052e+01,7.212389708753025275e+01,7.210182907784805195e+01,7.208307956586243392e+01,7.206756558913095034e+01,7.205520418521122394e+01,7.204599535410322630e+01,7.203985613336458016e+01,7.203686948543766277e+01,7.203678652299524288e+01,7.203960724603732046e+01,7.204533165456390975e+01,7.205371086124776525e+01,7.206491079097369834e+01,7.207859959397204364e+01,7.209477727024284377e+01,7.211336085734365042e+01,7.213435035527446360e+01,7.215741391426564633e+01,7.218263449675960430e+01,7.220976321542906362e+01,7.223880007027408112e+01,7.226957913640978859e+01,7.230193448895137465e+01,7.233578316545640519e+01,7.237104220348248873e+01,7.240754567814477127e+01,7.244512766455844144e+01,7.248370520028110775e+01,7.252311236042788778e+01,7.256326618255643268e+01,7.260408370422426572e+01,7.264531603810416982e+01,7.268688022175372510e+01,7.272877625517295996e+01,7.277075525103460052e+01,7.281273424689624107e+01,7.285463028031544752e+01,7.289636038884985680e+01,7.293784161005700639e+01,7.297882505660966501e+01,7.301939369095026677e+01,7.305938158819397188e+01,7.309870578589833201e+01,7.313736628406340401e+01,7.317511419536191397e+01,7.321203248223628179e+01,7.324795521980168189e+01,7.328288240805810005e+01,7.331673108456313059e+01,7.334950124931678772e+01
7.338102697743421743e+01,7.341139123135785383e+01,7.344042808620287133e+01,7.346822050441166141e+01,7.349468552354181838e+01,7.351974018115095078e+01,7.354346743968142164e+01,7.356586729913330203e+01,7.358685679706411520e+01,7.360643593347388958e+01,7.362460470836262516e+01,7.364136312173030774e+01,7.365671117357696573e+01,7.367073182634497641e+01,7.368342508003436819e+01,7.369470797220270697e+01,7.370466346529241264e+01,7.371333304052471647e+01,7.372073329038808254e+01,7.372689739985945323e+01,7.373185025767159573e+01,7.373564164128993070e+01,7.373829643944718271e+01,7.373987272585304709e+01,7.374041198172875511e+01,7.373996398453971324e+01,7.373857021550715274e+01,7.373629704458500100e+01,7.373319424923870713e+01,7.372931160693372021e+01,7.372470719137972139e+01,7.371943907628642023e+01,7.371357363160771570e+01,7.370715233856485327e+01,7.370026645584447067e+01,7.369296576091200279e+01,7.368525025376747806e+01,7.367728585929570784e+01,7.366898961505427224e+01,7.366052744592801105e+01,7.365198231435934417e+01,7.364327125790585171e+01,7.363456020145234504e+01,7.362593210744124406e+01,7.361730401343015728e+01,7.360875888186149041e+01,7.360046263762005481e+01,7.359224935582103910e+01,7.358436792379168878e+01,7.357681834153197542e+01,7.356951764659952175e+01,7.356263176387913916e+01,7.355616069337081342e+01,7.355002147263216727e+01
7.354446298899040357e+01,7.353931931756071094e+01,7.353475638322792918e+01,7.353069122354962417e+01,7.352720680096823003e+01,7.352438607792613823e+01,7.352206312953853740e+01,7.352040388069025312e+01,7.351932536893886549e+01,7.351899351916921432e+01,7.351924240649645981e+01,7.352015499336300763e+01,7.352173127976887201e+01,7.352397126571406716e+01,7.352695791364098454e+01,7.353052529866479858e+01,7.353483934567033486e+01,7.353981709221520191e+01,7.354537557585696561e+01,7.355168072148045155e+01,7.355864956664325405e+01,7.356619914890296741e+01,7.357441243070196890e+01,7.358328941204030116e+01,7.359274713047553007e+01,7.360286854845006133e+01,7.361357070352151766e+01,7.362485359568987064e+01,7.363671722495510608e+01,7.364916159131725237e+01,7.366210373233388964e+01,7.367554364800500366e+01,7.368956430077301434e+01,7.370399976575311030e+01,7.371890811665495846e+01,7.373427276099008054e+01,7.375006051378153415e+01,7.376623819005233429e+01,7.378278919731398844e+01,7.379968864683377205e+01,7.381691164987897480e+01,7.383443331771688634e+01,7.385222876161473948e+01,7.387027309283986654e+01,7.388854971890373236e+01,7.390702545482938035e+01,7.392567541188412861e+01,7.394449129382368824e+01,7.396343161942688482e+01,7.398247979620521164e+01,7.400161923167019040e+01,7.402082503708909655e+01,7.404008061997346601e+01,7.405936938783477785e+01
7.407866645194035016e+01,7.409796351604592246e+01,7.411724398766300226e+01,7.413648297805887921e+01,7.415568048723353911e+01,7.417481162645428583e+01,7.419388469196533720e+01,7.421286649878973662e+01,7.423176534317170194e+01,7.425057292886702953e+01,7.426927266338722688e+01,7.428786454673226558e+01,7.430635687514640608e+01,7.432473305614117010e+01,7.434300138596081808e+01,7.436116186460529320e+01,7.437920619583042026e+01,7.439715097212462069e+01,7.441499619348795136e+01,7.443274185992036962e+01,7.445040456391038219e+01,7.446798098696027068e+01,7.448548357343641158e+01,7.450292061958305112e+01,7.452030042164442136e+01,7.453763285215117662e+01,7.455492645623488102e+01,7.457219094050130082e+01,7.458943468415711209e+01,7.460666764269539897e+01,7.462389562348715799e+01,7.464113521902085324e+01,7.465839140704302679e+01,7.467566418755369284e+01,7.469297015304131548e+01,7.471032589599438722e+01,7.472771482392442977e+01,7.474517012180838549e+01,7.476268349340205077e+01,7.478026323494964345e+01,7.479792593893965602e+01,7.481566330912782803e+01,7.483350023424689823e+01,7.485142012180838833e+01,7.486944786054502288e+01,7.488759174670101970e+01,7.490584348403218939e+01,7.492421966502693920e+01,7.494272028968534016e+01,7.496136195049582795e+01,7.498014464745843100e+01,7.499907667681738133e+01,7.501814974232841848e+01,7.503738873272429544e+01
7.505677705551651968e+01,7.507633130319356951e+01,7.509605977199969118e+01,7.511594586944640639e+01,7.513601448426642548e+01,7.515624902397127016e+01,7.517665778480518668e+01,7.519724906301242129e+01,7.521800626610448148e+01,7.523892939408136726e+01,7.526002674318732488e+01,7.528129001717810809e+01,7.530271091980948484e+01,7.532428945108145513e+01,7.534600901850551224e+01,7.536787791832593086e+01,7.538987955805419006e+01,7.541203053017881075e+01,7.543426446474583713e+01,7.545658136175529762e+01,7.547898122120716380e+01,7.550154700554385556e+01,7.552411278988053311e+01,7.554667857421722488e+01,7.556932732099633654e+01,7.559197606777544820e+01,7.561454185211212575e+01,7.563710763644881752e+01,7.565967342078552349e+01,7.568207328023737546e+01,7.570439017724682174e+01,7.572662411181386233e+01,7.574869212149607733e+01,7.577051124385103265e+01,7.579216444132116237e+01,7.581356875146404661e+01,7.583472417427968537e+01,7.585554774732568717e+01,7.587603947060202358e+01,7.589611638166628893e+01,7.591594440540329458e+01,7.593527465448583769e+01,7.595419009135629551e+01,7.597260775357227658e+01,7.599052764113376668e+01,7.600794975404076581e+01,7.602487409229328819e+01,7.604121769344891391e+01,7.605698055750761455e+01,7.607207972202702706e+01,7.608668111189194860e+01,7.610061880221753938e+01,7.611389279300382782e+01,7.612658604669321960e+01
7.613861560084329483e+01,7.614998145545405350e+01,7.616076657296790131e+01,7.617088799094246099e+01,7.618042867182010980e+01,7.618930565315844206e+01,7.619768485984228334e+01,7.620548332942922798e+01,7.621261809947685606e+01,7.621933805731241307e+01,7.622556024049349332e+01,7.623128464902008261e+01,7.623651128289218093e+01,7.624140606699462808e+01,7.624596900132739563e+01,7.625020008589054044e+01,7.625409932068400565e+01,7.625783263059264527e+01,7.626140001561647352e+01,7.626488443819785346e+01,7.626828589833685612e+01,7.627168735847584458e+01,7.627517178105725293e+01,7.627873916608105276e+01,7.628247247598969238e+01,7.628645467322557749e+01,7.629068575778872230e+01,7.629516572967908417e+01,7.630014347622393700e+01,7.630537011009604953e+01,7.631109451862262461e+01,7.631715077691887927e+01,7.632362184742720501e+01,7.633042476770516771e+01,7.633764250019521569e+01,7.634510912001250915e+01,7.635290758959943958e+01,7.636087198407122401e+01,7.636891934098539991e+01,7.637704966034199572e+01,7.638509701725618584e+01,7.639306141172797027e+01,7.640077691887250921e+01,7.640807761380494867e+01,7.641496349652534548e+01,7.642135160459125132e+01,7.642691008823300081e+01,7.643172190989304227e+01,7.643553818224408758e+01,7.643827594284375948e+01,7.643976926680723238e+01,7.644001815413446366e+01,7.643877371749825045e+01,7.643595299445615865e+01
7.643147302256579678e+01,7.642516787694231084e+01,7.641703755758570082e+01,7.640691613961115536e+01,7.639463769813383465e+01,7.638028519559615859e+01,7.636369270711330159e+01,7.634486023268526367e+01,7.632370480986962491e+01,7.630039236355118248e+01,7.627483993128758755e+01,7.624721343796362305e+01,7.621742992113688331e+01,7.618582123057703370e+01,7.615247032872647992e+01,7.611746017802764186e+01,7.608103966580776500e+01,7.604329175450925504e+01,7.600463125634419725e+01,7.596497520887017174e+01,7.592482138674162684e+01,7.588408682751619949e+01,7.584318634340596077e+01,7.580228585929569363e+01,7.576155130007029470e+01,7.572123155305692421e+01,7.568140958069805890e+01,7.564233427032091583e+01,7.560408858436792912e+01,7.556667252283908454e+01,7.553025201061919347e+01,7.549474408526587865e+01,7.546014874677912587e+01,7.542654895760132661e+01,7.539377879284766948e+01,7.536179677129695165e+01,7.533062778168189766e+01,7.530014738033888477e+01,7.527023112360429025e+01,7.524067160537207144e+01,7.521120334582650457e+01,7.518147790270946018e+01,7.515107216756462094e+01,7.511947177324901759e+01,7.508616235261968086e+01,7.505057976106816398e+01,7.501221792769578656e+01,7.497063715155775299e+01,7.492544750917467411e+01,7.487631715077692718e+01,7.482294741157180340e+01,7.476510599672054980e+01,7.470260209260561624e+01,7.463533614429610452e+01
7.456334714413992515e+01,7.448680848364176654e+01,7.440612750839385114e+01,7.432197040680877365e+01,7.423534102443976224e+01,7.414756676036542160e+01,7.406021560474741250e+01,7.397501317638791818e+01,7.389369339033342499e+01,7.381794868040915958e+01,7.374931385179981191e+01,7.368914948856095748e+01,7.363862536113063584e+01,7.359863746388694494e+01,7.356976653392676724e+01,7.355251034590459369e+01,7.354678593737800441e+01,7.355259330834701359e+01,7.356918579682987058e+01,7.359548489107520197e+01,7.362949949246507231e+01,7.366882369016943244e+01,7.371038787381900192e+01,7.375074080580932900e+01,7.378643124853596191e+01,7.381404944561568016e+01,7.383055067541188521e+01,7.383346265714062895e+01,7.382105977199969971e+01,7.379247091434372408e+01,7.374775415788241162e+01,7.368790505192473006e+01,7.361464921527290528e+01,7.353060826110721848e+01,7.343943253689388939e+01,7.334576793940814810e+01,7.325550480206136683e+01,7.317586085734363621e+01,7.311471753728429235e+01,7.308053701100961064e+01,7.308153256031857836e+01,7.312566857968299416e+01,7.321958206449598094e+01,7.336883149839933083e+01,7.357632056687749866e+01,7.384276274693527853e+01,7.416615034746622825e+01,7.454237855274459434e+01,7.496542711017413296e+01,7.542754450691029433e+01,7.591859920356056080e+01,7.642649527602092974e+01,7.693688022175372510e+01,7.743407413914266613e+01
7.790115268993520203e+01,7.832011302412743703e+01,7.867237155461857867e+01,7.893917876942298051e+01,7.910377625517295996e+01,7.915197743421568077e+01,7.907332903880690367e+01,7.886127703599593985e+01,7.851374736472241977e+01,7.803322889825876985e+01,7.742735418130709490e+01,7.670923127976888622e+01,7.589619934410869462e+01,7.500904046615133325e+01,7.407207923401266214e+01,7.311173088935738917e+01,7.215575466541734784e+01,7.123188490669164707e+01,7.036542515811666476e+01,6.957719899273834585e+01,6.888313519950027342e+01,6.829194483485595413e+01,6.780462344811432729e+01,6.741420219411260462e+01,6.710632857031311005e+01,6.685993011634262473e+01,6.664837588818615188e+01,6.644105274459280963e+01,6.620485867103927546e+01,6.590868275162020495e+01,6.552373701881784029e+01,6.503176973530101179e+01,6.441701803701101881e+01,6.367699305067541360e+01,6.282247989380807951e+01,6.188168579682986348e+01,6.090106972749278214e+01,5.994119426875927559e+01,5.906677012571250884e+01,5.833753025689076566e+01,5.781071874755993178e+01,5.752947606777544109e+01,5.751454282814086838e+01,5.775181541344577596e+01,5.818239048957600801e+01,5.871500936987585817e+01,5.925011712344812054e+01,5.970143281018193449e+01,6.001005309596315129e+01,6.015689661903646623e+01,6.017846685406419027e+01,6.017514835636761461e+01,6.034024361677208503e+01,6.097822479893808634e+01
6.247652650894042381e+01,6.530969391738892682e+01,6.997467205434527671e+01,7.681442765675022599e+01,8.590677949558836701e+01,9.699553954868432015e+01,1.095494163348168968e+02,1.231370051534317156e+02,1.377002322948387985e+02,1.534987702037948054e+02,1.707931209494807661e+02,1.891858944327321410e+02,2.071638557039119632e+02,2.223376864214882858e+02,2.322268095572733557e+02,2.352549387053955172e+02,2.314220738658546850e+02,2.222132427578668228e+02,2.096776177090653732e+02,1.955988912313578965e+02,1.808066877488873558e+02,1.651682673537909238e+02,1.482165514952760645e+02,1.298013781525728234e+02,1.103682556414461118e+02,9.102639181697509230e+01,7.308111774810652150e+01,5.755353517607559155e+01,4.505524322636058798e+01,3.573856094323416954e+01,2.945747442804716698e+01,2.600291832591551611e+01,2.509862770359959683e+01,2.636629382369016739e+01,2.933469001327399184e+01,3.342059030217848914e+01,3.800509486999297337e+01,4.252820723042086826e+01,4.652284883266963789e+01,4.964057741859920725e+01,5.168394237526352697e+01,5.261726985242445664e+01,5.255587764503786730e+01,5.173289021628797002e+01,5.044946123213866684e+01,4.901006285625048520e+01,4.769593776840790156e+01,4.674850667603654131e+01,4.633452408838917336e+01,4.652782657921449072e+01,4.730601428906066985e+01,4.855708792066837987e+01,5.011346334036074524e+01,5.178930467712969943e+01
5.340458343093621352e+01,5.480001171234481205e+01,5.585695322870305546e+01,5.651069727492777872e+01,5.675045873350511982e+01,5.661937807449051263e+01,5.619626961817755983e+01,5.557902904661513332e+01,5.486638166627625424e+01,5.415373428593738225e+01,5.351741235261965812e+01,5.301134145389239904e+01,5.266787694229718397e+01,5.249697431092371147e+01,5.249531506207543430e+01,5.264713633169360918e+01,5.293750488014367761e+01,5.334568009682205769e+01,5.385755836651831885e+01,5.445903607402202340e+01,5.514015772624346567e+01,5.589345670336535932e+01,5.671063676114625451e+01,5.758174240649645270e+01,5.849515889747794972e+01,5.943678261888030079e+01,6.039416920434138802e+01,6.135155578980245394e+01,6.229400913562895425e+01,6.320991449988287769e+01,6.408516826735379368e+01,6.491064456937611737e+01,6.567887678613259084e+01,6.638463828375108733e+01,6.702469352697744398e+01,6.759763215429062200e+01,6.810386897790270666e+01,6.854539509643164763e+01,6.892610974467088170e+01,6.925065881939565315e+01,6.952443487936285749e+01,6.975307937065667829e+01,6.994215077691887927e+01,7.009670980713673316e+01,7.022165124541267289e+01,7.032145506363707455e+01,7.040010345904583744e+01,7.046099789177795003e+01,7.050737389708754677e+01,7.054205219801671944e+01,7.056785351760755987e+01,7.058743265401734845e+01,7.060319551807606331e+01,7.061705024595926261e+01
7.063065608651518801e+01,7.064525747638010955e+01,7.066184996486296654e+01,7.068109725150308975e+01,7.070374599828220141e+01,7.073045990473960387e+01,7.076181970797220799e+01,7.079857206996173602e+01,7.084138069024751871e+01,7.089124111813853801e+01,7.094890001561645931e+01,7.101518700710549581e+01,7.109068282970251573e+01,7.117588525806201005e+01,7.127120910439603563e+01,7.137673733114704078e+01,7.149271882564222835e+01,7.161907062543920688e+01,7.175587569298039625e+01,7.190288514093855099e+01,7.205976711954400571e+01,7.222610681658468934e+01,7.240140645740611092e+01,7.258483641758414251e+01,7.277548411025220787e+01,7.297235398610135348e+01,7.317420160849536614e+01,7.337961661591317863e+01,7.358727160927618627e+01,7.379587237448271253e+01,7.400396706879051578e+01,7.421022829312096292e+01,7.441337012961662367e+01,7.461215560826111926e+01,7.480544233622238437e+01,7.499215760912001372e+01,7.517132329975795813e+01,7.534203511751387339e+01,7.550345514171937111e+01,7.565486159912549624e+01,7.579573182634497641e+01,7.592540212383852349e+01,7.604362360427892042e+01,7.614989849301163360e+01,7.624422679003670567e+01,7.632627664558445701e+01,7.639621398453969903e+01,7.645387288201764875e+01,7.649950222534552324e+01,7.653318497696572820e+01,7.655517002420550909e+01,7.656562329194971994e+01,7.656487662996799770e+01,7.655334485047241344e+01
7.653135980323260412e+01,7.649933630046069766e+01,7.645777211681112817e+01,7.640716502693840084e+01,7.634809576793941233e+01,7.628114507691107349e+01,7.620689369095026677e+01,7.612600530959632295e+01,7.603897770750373297e+01,7.594647458421177078e+01,7.584907667681736143e+01,7.574719879753260443e+01,7.564158760833919359e+01,7.553257495900679430e+01,7.542065862418989752e+01,7.530641934098541412e+01,7.519019725540721311e+01,7.507242377215585805e+01,7.495347222222221717e+01,7.483370764035294087e+01,7.471344528382915939e+01,7.459299460256110592e+01,7.447262107636450423e+01,7.435257525181542348e+01,7.423310103849458130e+01,7.411440667213243216e+01,7.399669126259077245e+01,7.388016221597564481e+01,7.376500204966035312e+01,7.365140157726243331e+01,7.353948524244553653e+01,7.342947704380416951e+01,7.332137698133833226e+01,7.321551690481769015e+01,7.311181385179980907e+01,7.301051670961193452e+01,7.291162547825409490e+01,7.281514015772624759e+01,7.272122667291324660e+01,7.262996798625751182e+01,7.254136409775904326e+01,7.245533204497542101e+01,7.237212071523386214e+01,7.229164714609198938e+01,7.221407726243461411e+01,7.213924513937691074e+01,7.206731670180371907e+01,7.199829194971501067e+01,7.193217088311081397e+01,7.186903646443352045e+01,7.180897165612557842e+01,7.175189349574452535e+01,7.169788494573279536e+01,7.164702896853283676e+01
7.159932556414460691e+01,7.155477473256813425e+01,7.151337647380339035e+01,7.147529671273522922e+01,7.144036952447879685e+01,7.140867787147654155e+01,7.138022175372843492e+01,7.135500117123447694e+01,7.133301612399469604e+01,7.131418364956664391e+01,7.129842078550792905e+01,7.128589345670337707e+01,7.127635277582571405e+01,7.126979874287499683e+01,7.126631432029360269e+01,7.126565062075428614e+01,7.126780764425704717e+01,7.127278539080191422e+01,7.128050089794643895e+01,7.129078824080581001e+01,7.130356445693760747e+01,7.131882954634185978e+01,7.133641758413368450e+01,7.135632857031312426e+01,7.137839657999532506e+01,7.140245568829547551e+01,7.142850589521356142e+01,7.145638127586477140e+01,7.148599886780668555e+01,7.151719274615443567e+01,7.154987994846568711e+01,7.158389454985555744e+01,7.161923655032404668e+01,7.165565706254392353e+01,7.169307312407276811e+01,7.173140177246818894e+01,7.177039412040291211e+01,7.181013313031935752e+01,7.185036991489029390e+01,7.189093854923089566e+01,7.193192199578356849e+01,7.197298840477864701e+01,7.201422073865855111e+01,7.205537011009604953e+01,7.209643651909112805e+01,7.213725404075897529e+01,7.217773971265714295e+01,7.221789353478567364e+01,7.225754958225969915e+01,7.229662489263684222e+01,7.233503650347466873e+01,7.237278441477316449e+01,7.240970270164754652e+01,7.244587432654019210e+01
7.248105040212384154e+01,7.251531389084094315e+01,7.254858183024907703e+01,7.258077125790583750e+01,7.261188217381121035e+01,7.264183161552276147e+01,7.267070254548295338e+01,7.269832903880690367e+01,7.272479405793707485e+01,7.275001464043101862e+01,7.277407374873116908e+01,7.279688842039510632e+01,7.281845865542283036e+01,7.283878445381431277e+01,7.285786581556961039e+01,7.287578570313111470e+01,7.289246115405639159e+01,7.290797513078784675e+01,7.292232763332553702e+01,7.293551866166940556e+01,7.294763117826188648e+01,7.295858222066058829e+01,7.296862067619271386e+01,7.297749765753104612e+01,7.298546205200281634e+01,7.299251385960803873e+01,7.299865308034668487e+01,7.300396267666121730e+01,7.300844264855157917e+01,7.301225892090263869e+01,7.301532853127196177e+01,7.301773444210198249e+01,7.301955961583509236e+01,7.302080405247130557e+01,7.302163367689544771e+01,7.302196552666511309e+01,7.302196552666511309e+01,7.302171663933786760e+01,7.302113590224097095e+01,7.302030627781682881e+01,7.301931072850784687e+01,7.301823221675647346e+01,7.301715370500508584e+01,7.301599223081129253e+01,7.301491371905990491e+01,7.301383520730850307e+01,7.301292262044195525e+01,7.301217595846021879e+01,7.301159522136332214e+01,7.301134633403607666e+01,7.301134633403607666e+01,7.301159522136332214e+01,7.301225892090263869e+01,7.301333743265402632e+01
7.301474779417506511e+01,7.301665593035059487e+01,7.301897887873819570e+01,7.302179960178027329e+01,7.302511809947685606e+01,7.302901733427033548e+01,7.303341434371829166e+01,7.303839209026313029e+01,7.304395057390489399e+01,7.305000683220114865e+01,7.305672679003670567e+01,7.306402748496915933e+01,7.307190891699852386e+01,7.308037108612478505e+01,7.308949695479036279e+01,7.309920356055282298e+01,7.310940794096978834e+01,7.312027602092605605e+01,7.313172483797923462e+01,7.314375439212930985e+01,7.315636468337628173e+01,7.316947274927774458e+01,7.318316155227610409e+01,7.319734812992894035e+01,7.321203248223628179e+01,7.322729757164051989e+01,7.324297747325682906e+01,7.325915514952761498e+01,7.327583060045289187e+01,7.329292086359022562e+01,7.331042593893964465e+01,7.332834582650114896e+01,7.334668052627471013e+01,7.336534707581792247e+01,7.338442843757320588e+01,7.340375868665574899e+01,7.342350374795034895e+01,7.344349769657219440e+01,7.346382349496369102e+01,7.348431521824004165e+01,7.350513879128601502e+01,7.352612828921684240e+01,7.354736667447490106e+01,7.356877098461778530e+01,7.359034121964550934e+01,7.361207737955805896e+01,7.363389650191301428e+01,7.365588154915280938e+01,7.367794955883502439e+01,7.370018349340205077e+01,7.372240083548059886e+01,7.374470943624581309e+01,7.376706781447646222e+01,7.378945937768409635e+01
7.381188412586867287e+01,7.383431717029749564e+01,7.385676680721481091e+01,7.387920814788787993e+01,7.390164119231671691e+01,7.392405764425704717e+01,7.394644091122043505e+01,7.396879928945109839e+01,7.399110789021629841e+01,7.401336671351604934e+01,7.403556746310611913e+01,7.405771013898649358e+01,7.407978644491294062e+01,7.410179638088546028e+01,7.412373165065980629e+01,7.414558395799171819e+01,7.416735330288123862e+01,7.418904798157258540e+01,7.421065140157728024e+01,7.423217185913954097e+01,7.425360935425938180e+01,7.427495559069259912e+01,7.429621886468338232e+01,7.431739917623174563e+01,7.433850482158194950e+01,7.435952750448973347e+01,7.438047552119934380e+01,7.440135716795504095e+01,7.442216414851253603e+01,7.444290475911611793e+01,7.446359061450769445e+01,7.448421424806747382e+01,7.450478146716640993e+01,7.452529641992660459e+01,7.454576134633404649e+01,7.456618031154839343e+01,7.458655588740533915e+01,7.460689164128993411e+01,7.462718923245101621e+01,7.464744866088858544e+01,7.466767490434919807e+01,7.468786796283282570e+01,7.470802783633951094e+01,7.472816282111345743e+01,7.474826462091043311e+01,7.476833323573046641e+01,7.478836866557351470e+01,7.480837920668385266e+01,7.482835656281721981e+01,7.484830073397361616e+01,7.486821172015305592e+01,7.488808952135552488e+01,7.490792584133677678e+01,7.492771238385259380e+01
7.494745744514719377e+01,7.496714443273211259e+01,7.498677334660733607e+01,7.500633589052863215e+01,7.502582376825174038e+01,7.504522868353244291e+01,7.506455063637073977e+01,7.508378133052238468e+01,7.510290417349887093e+01,7.512191086905599491e+01,7.514080141719372818e+01,7.515955922542360668e+01,7.517817599750138413e+01,7.519663514093856804e+01,7.521492835949091216e+01,7.523305565315844490e+01,7.525099213320841329e+01,7.526872950339658530e+01,7.528626776372297513e+01,7.530358202545482982e+01,7.532067228859217778e+01,7.533753855313501901e+01,7.535415593035060056e+01,7.537054930897166116e+01,7.538664402280004140e+01,7.540248984930117615e+01,7.541808678847505121e+01,7.543343484032170920e+01,7.544853400484110750e+01,7.546330131959086884e+01,7.547790270945576196e+01,7.549225521199343802e+01,7.550635882720386860e+01,7.552021355508706790e+01,7.553390235808542741e+01,7.554742523619896133e+01,7.556078218942765545e+01,7.557397321777152399e+01,7.558708128367300105e+01,7.560002342468963832e+01,7.561296556570626137e+01,7.562582474428047874e+01,7.563868392285469611e+01,7.565154310142891347e+01,7.566448524244555074e+01,7.567751034590459369e+01,7.569061841180605654e+01,7.570397536503475067e+01,7.571749824314828459e+01,7.573127000858906399e+01,7.574537362379949457e+01,7.575980908877959052e+01,7.577465936597174334e+01,7.579000741781838713e+01
7.580585324431952188e+01,7.582219684547513339e+01,7.583912118372765576e+01,7.585670922151949469e+01,7.587487799640823027e+01,7.589379343327868810e+01,7.591337256968846248e+01,7.593369836807995910e+01,7.595468786601078648e+01,7.597642402592332189e+01,7.599874092293276817e+01,7.602163855703912532e+01,7.604511692824237912e+01,7.606901011165770399e+01,7.609340106972750561e+01,7.611804091512455273e+01,7.614292964784884532e+01,7.616790134301554360e+01,7.619295600062466178e+01,7.621792769579137428e+01,7.624265050363082707e+01,7.626704146170064291e+01,7.629093464511596778e+01,7.631433005387678747e+01,7.633689583821347924e+01,7.635863199812604307e+01,7.637945557117201645e+01,7.639903470758179083e+01,7.641745236979778610e+01,7.643437670805028006e+01,7.644989068478177785e+01,7.646366245022254304e+01,7.647577496681502396e+01,7.648589638478958364e+01,7.649410966658859934e+01,7.650024888732724548e+01,7.650414812212072491e+01,7.650580737096899497e+01,7.650514367142969263e+01,7.650207406106036956e+01,7.649668150230344565e+01,7.648896599515890671e+01,7.647892753962676693e+01,7.646664909814946043e+01,7.645221363316936447e+01,7.643578706957134727e+01,7.641753533224019179e+01,7.639754138361834634e+01,7.637605411103304220e+01,7.635315647692668506e+01,7.632901440618412892e+01,7.630395974857499652e+01,7.627799250409933052e+01,7.625136156008433375e+01
7.622414987897244032e+01,7.619660634809088151e+01,7.616889689232451133e+01,7.614102151167330135e+01,7.611314613102210558e+01,7.608535371281331550e+01,7.605764425704693110e+01,7.603010072616538650e+01,7.600264015772624759e+01,7.597526255172952858e+01,7.594796790817522947e+01,7.592050733973609056e+01,7.589288084641212606e+01,7.586500546576091608e+01,7.583688119778247483e+01,7.580834211759196251e+01,7.577922230030452511e+01,7.574952174592020526e+01,7.571899156711174328e+01,7.568729991410947378e+01,7.565411493714375979e+01,7.561910478644492173e+01,7.558177168735848284e+01,7.554170082767237204e+01,7.549847739517451828e+01,7.545176954009527037e+01,7.540132837510736863e+01,7.534690501288358178e+01,7.528827545482940309e+01,7.522533184976967391e+01,7.515799123526197434e+01,7.508622872257359404e+01,7.501011068165848883e+01,7.492985281486687654e+01,7.484585334192239259e+01,7.475880914734131011e+01,7.466971578043258262e+01,7.457986828492231268e+01,7.449084045834310075e+01,7.440437700085890071e+01,7.432231884906693153e+01,7.424649117670024623e+01,7.417865278753808411e+01,7.412039656047474523e+01,7.407314944951980351e+01,7.403811441008824090e+01,7.401629528773328559e+01,7.400850511439057300e+01,7.401534951588975275e+01,7.403714374951198351e+01,7.407377996408214926e+01,7.412459446006091923e+01,7.418829302334661691e+01,7.426289285156555309e+01
7.434583870149137397e+01,7.443412733270868387e+01,7.452449168423518699e+01,7.461361325837432901e+01,7.469835441555399314e+01,7.477599896540954205e+01,7.484441809166862924e+01,7.490219313656595546e+01,7.494866040056218992e+01,7.498384477239011403e+01,7.500843484032169783e+01,7.502387415085500777e+01,7.503246076364489170e+01,7.503754636136488898e+01,7.504357773092840489e+01,7.505601380104630493e+01,7.508110993987664017e+01,7.512559440149919965e+01,7.519635306863435176e+01,7.529995656672133464e+01,7.544222885921762156e+01,7.562773288045600850e+01,7.585903216990708131e+01,7.613670746466776507e+01,7.645926544077458686e+01,7.682313871320371845e+01,7.722276879831343877e+01,7.765085500117123729e+01,7.809785664089952206e+01,7.855232490044508609e+01,7.900081986413681534e+01,7.942882310455219397e+01,7.982082064495979523e+01,8.016080073397361616e+01,8.043300050753494190e+01,8.062290153822129923e+01,8.071781057234325374e+01,8.070802100413837366e+01,8.058714472554073893e+01,8.035269286327789473e+01,8.000624170375576227e+01,7.955293491840400577e+01,7.900214726321544845e+01,7.836665495432185935e+01,7.766246974310924145e+01,7.690900484110251512e+01,7.612774752088701291e+01,7.534191897009448269e+01,7.457471548762396196e+01,7.384832123057704223e+01,7.318208304052473068e+01,7.259105860076520855e+01,7.208490473959554379e+01,7.166586144296088889e+01
7.132870207698915976e+01,7.106098227531819589e+01,7.084378660107753944e+01,7.065247520887015753e+01,7.045767939408136726e+01,7.022745861638168208e+01,6.993020418521120973e+01,6.953804071991879709e+01,6.902939798547669170e+01,6.839025532911689709e+01,6.761604981650660307e+01,6.671623916608105276e+01,6.571786913406731401e+01,6.466839423752635696e+01,6.362887483407512690e+01,6.266651050206917972e+01,6.184767119544000025e+01,6.123126024830170877e+01,6.086788475052705394e+01,6.078409268368861262e+01,6.097324705239322640e+01,6.138391114234404000e+01,6.192731514015773087e+01,6.250307449051300779e+01,6.301661200905755322e+01,6.339575037089091580e+01,6.360481572577496934e+01,6.366371905988913227e+01,6.367616342625127857e+01,6.384789568204888610e+01,6.448172874209417671e+01,6.594435660185835957e+01,6.862877235105801788e+01,7.292813500429453200e+01,7.920938744436635659e+01,8.773527172639963112e+01,9.858427032091825026e+01,1.115736999297259473e+02,1.262763039743890232e+02,1.421594635746076847e+02,1.587137893339580046e+02,1.754722027016475749e+02,1.918987662996799202e+02,2.071887444366362274e+02,2.201972554071992363e+02,2.296300851097056466e+02,2.343672405715624905e+02,2.338528734285937674e+02,2.282695010541110605e+02,2.184052666510502263e+02,2.052723120168658113e+02,1.898495939720465913e+02,1.727925158116655098e+02,1.545042750058562149e+02
1.353772839072382794e+02,1.159507983915046623e+02,9.697977668462560530e+01,7.936610349808698572e+01,6.390845826501132620e+01,5.115298274381198240e+01,4.137005153431717019e+01,3.456215350979933021e+01,3.057580815179198908e+01,2.915715038650737867e+01,2.991791598344655156e+01,3.236862653236511278e+01,3.595094479581479163e+01,4.008330405247130557e+01,4.423557429530725216e+01,4.796971382837510589e+01,5.094474701335207101e+01,5.294663074880924114e+01,5.391812094948075895e+01,5.394300968220505155e+01,5.322787342859373894e+01,5.205063637073476457e+01,5.070000780822986997e+01,4.944810455219801781e+01,4.853053993909581720e+01,4.811821660029671932e+01,4.829492660263918680e+01,4.905071445303349975e+01,5.028934371827906347e+01,5.185318575778870809e+01,5.356221207152339758e+01,5.523971265714063605e+01,5.672474037635669220e+01,5.789285156555008882e+01,5.867020965097213292e+01,5.903607402201922127e+01,5.902114078238464145e+01,5.869758725696884483e+01,5.815501288357929610e+01,5.749048371984071792e+01,5.679525845240883797e+01,5.614732177715312389e+01,5.560308815491528378e+01,5.519740181150933722e+01,5.494519598656984982e+01,5.484232255797611089e+01,5.487882603263840053e+01,5.503977317092216026e+01,5.530774185992035541e+01,5.566945810884672596e+01,5.611330717576326066e+01,5.663265206527680107e+01,5.722002615757008215e+01,5.787211095494651403e+01
5.858143983758882456e+01,5.933722768798313751e+01,6.013034863746389647e+01,6.094835831966893380e+01,6.177715311938784026e+01,6.260511829468260458e+01,6.341732060591863984e+01,6.420380456000624747e+01,6.495461466385570759e+01,6.566062504880144957e+01,6.631627723120168127e+01,6.691792086359022562e+01,6.746256929804013680e+01,6.794906106035762150e+01,6.837764503786992520e+01,6.875031232919498336e+01,6.906980069493245367e+01,6.934025825720308944e+01,6.956566721324276159e+01,6.975067345982667177e+01,6.989942511907550227e+01,7.001623623799484619e+01,7.010492308893574886e+01,7.016930194424925560e+01,7.021260833918950084e+01,7.023807780901070430e+01,7.024861403919732084e+01,7.024728664011870194e+01,7.023691633481691099e+01,7.022048977121886537e+01,7.020057878503943982e+01,7.017958928710861244e+01,7.015934645115953572e+01,7.014134360115562572e+01,7.012682517373312407e+01,7.011695264308582409e+01,7.011255563363786791e+01,7.011438080737097778e+01,7.012334075115171572e+01,7.014009916451941251e+01,7.016556863434058755e+01,7.020032989771220855e+01,7.024521257905833238e+01,7.030079741547591254e+01,7.036741625673461442e+01,7.044515206527680107e+01,7.053425372842977481e+01,7.063447235886624753e+01,7.074580795658626187e+01,7.086801163426251549e+01,7.100083450456781975e+01,7.114386175529007517e+01,7.129667857421723909e+01,7.145870422425237223e+01
7.162927500585618645e+01,7.180747833216209131e+01,7.199240161630359580e+01,7.218288338408682137e+01,7.237767919887561163e+01,7.257554462403372497e+01,7.277506929804015101e+01,7.297500878425861970e+01,7.317403568361054056e+01,7.337090555945967196e+01,7.356437397516984333e+01,7.375347027016475465e+01,7.393700808151793069e+01,7.411404993363004223e+01,7.428367494339035204e+01,7.444505348637464692e+01,7.459743309323026494e+01,7.474015089404231560e+01,7.487265850706644699e+01,7.499450544624035331e+01,7.510534326930584825e+01,7.520490649644726489e+01,7.529304579526821328e+01,7.536966990708206993e+01,7.543476223940034231e+01,7.548843893964239271e+01,7.553083274771610434e+01,7.556202662606388287e+01,7.558235242445537949e+01,7.559197606777544820e+01,7.559139533067855155e+01,7.558094206293434070e+01,7.556094811431249525e+01,7.553199422190989765e+01,7.549457816038103886e+01,7.544928066682284395e+01,7.539659951588976128e+01,7.533723988834232443e+01,7.527176592878895178e+01,7.520078326305926453e+01,7.512490581322714434e+01,7.504470602014524161e+01,7.496074802842197471e+01,7.487357939017725528e+01,7.478371447255408100e+01,7.469164275396268238e+01,7.459783214257826955e+01,7.450270989497931851e+01,7.440668335675803746e+01,7.431013166627626276e+01,7.421340575466541623e+01,7.411682087920668494e+01,7.402065911220427097e+01,7.392518593347388389e+01
7.383063363785430511e+01,7.373721792769580929e+01,7.364517939408136726e+01,7.355458440696494904e+01,7.346564866869681509e+01,7.337853810416179101e+01,7.329341863824471659e+01,7.321037323338799752e+01,7.312956781447647359e+01,7.305100238151011638e+01,7.297475989693137421e+01,7.290100628562505847e+01,7.282965858514874924e+01,7.276088272038728633e+01,7.269467869134068394e+01,7.263096353556649376e+01,7.256982021550714990e+01,7.251124873116265235e+01,7.245516612009058122e+01,7.240165534473335640e+01,7.235063344264854379e+01,7.230218337627860592e+01,7.225613922073866036e+01,7.221258393847115542e+01,7.217151752947607690e+01,7.213285703131100490e+01,7.209660244397596784e+01,7.206275376747090888e+01,7.203131100179589907e+01,7.200219118450847589e+01,7.197556024049347911e+01,7.195116928242369170e+01,7.192918423518388238e+01,7.190952213633170231e+01,7.189218298586710887e+01,7.187724974623253615e+01,7.186455649254315858e+01,7.185418618724135342e+01,7.184613883032716330e+01,7.184033145935816833e+01,7.183684703677675998e+01,7.183551963769814108e+01,7.183651518700712302e+01,7.183958479737644609e+01,7.184489439369095010e+01,7.185227805106582366e+01,7.186181873194347247e+01,7.187335051143907094e+01,7.188695635199499634e+01,7.190263625361131972e+01,7.192022429140314443e+01,7.193972046537049891e+01,7.196104181307097747e+01,7.198435425938940568e+01
