4.143084228191724350e+01,4.111401875517354654e+01,4.086716994182948071e+01,4.068202610302871847e+01,4.053293948224835219e+01,4.038301432151401826e+01,4.019289707333113881e+01,3.992956661261608531e+01,3.957240642256970631e+01,3.911522865663517479e+01,3.856545873068068886e+01,3.794251607343319677e+01,3.727483586388325421e+01,3.659567633151527133e+01,3.593846341380444187e+01,3.533144723264805975e+01,3.479535996552857569e+01,3.434225923868056185e+01,3.397590402431141854e+01,3.369571601900464231e+01,3.349562303688668408e+01,3.336723967841793836e+01,3.330131308893398767e+01,3.328743380693737208e+01,3.331750558459672362e+01,3.338429962920545790e+01,3.348145460318179545e+01,3.360376577577702761e+01,3.374573926453412298e+01,3.390217033870437291e+01,3.406930002608034869e+01,3.424308020274636988e+01,3.441975189649502909e+01,3.459671274195194002e+01,3.477136037374275901e+01,3.494167072990962453e+01,3.510590890020296939e+01,3.526349658120627595e+01,3.541356631779473219e+01,3.555640726167662535e+01,3.569173026114367531e+01,3.581988229824581538e+01,3.594118143986211322e+01,3.605614815906745463e+01,3.616524509859505798e+01,3.626884815566567255e+01,3.636707299096259050e+01,3.645980394380251255e+01,3.654672294730634974e+01,3.662742518908253686e+01,3.670141911122702538e+01,3.676832881651906604e+01,3.682777840773792377e+01,3.687968113937112236e+01
3.692412375693113802e+01,3.696145324246787567e+01,3.699227681456870442e+01,3.701743301318758483e+01,3.703790495413259976e+01,3.705479141389515974e+01,3.706933574482077631e+01,3.708281021442583381e+01,3.709657383573915013e+01,3.711213019764370102e+01,3.713086722833913456e+01,3.715428851670843358e+01,3.718372416060960006e+01,3.722050425790064310e+01,3.726581433058544235e+01,3.732069532481375518e+01,3.738601469571035096e+01,3.746240857703341476e+01,3.755036852668700220e+01,3.765024152672101110e+01,3.776220106816042232e+01,3.788624715100522167e+01,3.802232194491376305e+01,3.817022304369025676e+01,3.832969021079725991e+01,3.850032730839446771e+01,3.868164856161199339e+01,3.887312482282370496e+01,3.907414019889100842e+01,3.928406433908990891e+01,3.950217147263263939e+01,3.972770980507772265e+01,3.996001428749617190e+01,4.019824637993400529e+01,4.044174103346222182e+01,4.068968862329769109e+01,4.094136627016975183e+01,4.119602217963691970e+01,4.145293347242852633e+01,4.171129052376146262e+01,4.197065960607331192e+01,4.222973953667690949e+01,4.248853031557223403e+01,4.274587533592625022e+01,4.300119629432241908e+01,4.325391488734422296e+01,4.350374196328340304e+01,4.374952091530689557e+01,4.399067343999818291e+01,4.422719953735726506e+01,4.445794260055109248e+01,4.468232432616311911e+01,4.489976641077684860e+01,4.510997970268400792e+01
4.531209674675979215e+01,4.550553923958769786e+01,4.568972887775119318e+01,4.586408735783373913e+01,4.602803637641882517e+01,4.618128678179817825e+01,4.632268196713875597e+01,4.645193278073229237e+01,4.656875007087050733e+01,4.667226638242865278e+01,4.676190341199015421e+01,4.683766115955504006e+01,4.689838301829026079e+01,4.694406898819580221e+01,4.697414076585514664e+01,4.698802004785176933e+01,4.698541768247740436e+01,4.696633366973205170e+01,4.692961140278265475e+01,4.687554003333749364e+01,4.680383040968828823e+01,4.671390422841850665e+01,4.660547233781991139e+01,4.647882388960074707e+01,4.633338058034448181e+01,4.616943156175940288e+01,4.598668768213722302e+01,4.578543809318622237e+01,4.556597194661465977e+01,4.532800009071426217e+01,4.507238998060982738e+01,4.479914161630134828e+01,4.450854414949710502e+01,4.420175418703011871e+01,4.387877172890043198e+01,4.354046423023279289e+01,4.318769914615200634e+01,4.282105478007461130e+01,4.244139858712537716e+01,4.204988717413736055e+01,4.164709884452708621e+01,4.123456610234836717e+01,4.081295399653017597e+01,4.038350587941806680e+01,3.994729161233259873e+01,3.950546780210683551e+01,3.905924888591547983e+01,3.860978279604032082e+01,3.815830999330982110e+01,3.770607672158659085e+01,3.725430609259657899e+01,3.680424145868531838e+01,3.635709725702751882e+01,3.591408792479787593e+01
3.547631223848779314e+01,3.504518704146776287e+01,3.462157978886255449e+01,3.420693623921351190e+01,3.380154554422887259e+01,3.340714261415822506e+01,3.302401660070983525e+01,3.265332411071675267e+01,3.229564344759550210e+01,3.195155291476261539e+01,3.162191996734286192e+01,3.130674460533627013e+01,3.100689428386760582e+01,3.072236900293687256e+01,3.045374706596060221e+01,3.020073932123053950e+01,2.996334576874666666e+01,2.974214471192552622e+01,2.953655784735057566e+01,2.934687432673009155e+01,2.917251584664753850e+01,2.901319325539466476e+01,2.886861740126319731e+01,2.873878828425313614e+01,2.862283844923970122e+01,2.852018959280635713e+01,2.843084171495311097e+01,2.835392736055517204e+01,2.828857907448774966e+01,2.823450770504258145e+01,2.819084579709487670e+01,2.815672589551984828e+01,2.813156969690097498e+01,2.811450974611345899e+01,2.810496773974078621e+01,2.810207622265815530e+01,2.810467858803251673e+01,2.811277483586388115e+01,2.812520835931919194e+01,2.814111170327365130e+01,2.815990656431074513e+01,2.818130379072220393e+01,2.820443592738323346e+01,2.822843551916905724e+01,2.825330256607966817e+01,2.827788046128201671e+01,2.830245835648436525e+01,2.832616879656192665e+01,2.834872262980643498e+01,2.836983070450963140e+01,2.838920386896324999e+01,2.840626381975076598e+01,2.842129970858043464e+01,2.843373323203574188e+01
2.844327523840841820e+01,2.845021487940673310e+01,2.845397385161414405e+01,2.845455215503067237e+01,2.845223894136456977e+01,2.844674505890757388e+01,2.843807050765968469e+01,2.842621528762090222e+01,2.841146855049949593e+01,2.839383029629545874e+01,2.837330052500878352e+01,2.835016838834775399e+01,2.832443388631235237e+01,2.829667532231911053e+01,2.826631439295150372e+01,2.823421855333431907e+01,2.820067695517581541e+01,2.816511129505947153e+01,2.812838902811008168e+01,2.809051015432763521e+01,2.805176382542040159e+01,2.801215004138838438e+01,2.797166880223156937e+01,2.793089841136649554e+01,2.788983886879315932e+01,2.784849017451156072e+01,2.780714148022996213e+01,2.776579278594836353e+01,2.772444409166676138e+01,2.768367370080168754e+01,2.764290330993661371e+01,2.760271122248806464e+01,2.756309743845604388e+01,2.752406195784054788e+01,2.748560478064158019e+01,2.744801505856739610e+01,2.741129279161800270e+01,2.737543797979339999e+01,2.734016147138532205e+01,2.730604156981029007e+01,2.727278912336005234e+01,2.724040413203460531e+01,2.720888659583394542e+01,2.717794736304981384e+01,2.714816473709872824e+01,2.711896041456417095e+01,2.709033439544614197e+01,2.706257583145290369e+01,2.703510641916792423e+01,2.700792615859120716e+01,2.698132420143101839e+01,2.695501139597909201e+01,2.692869859052716208e+01,2.690267493678349808e+01
2.687636213133157526e+01,2.685004932587964888e+01,2.682373652042771894e+01,2.679713456326753018e+01,2.676995430269080956e+01,2.674277404211409248e+01,2.671501547812085064e+01,2.668667861071108405e+01,2.665776343988479269e+01,2.662798081393370708e+01,2.659790903627436620e+01,2.656668065178196869e+01,2.653487396387304642e+01,2.650219982083933346e+01,2.646865822268082979e+01,2.643396001768927661e+01,2.639839435757293984e+01,2.636196124233180882e+01,2.632408236854936234e+01,2.628533603964213228e+01,2.624572225561010796e+01,2.620466271303677175e+01,2.616302486704691077e+01,2.611994126251573434e+01,2.607627935456802959e+01,2.603146083978727532e+01,2.598577486988173035e+01,2.593979974826792301e+01,2.589266801982106614e+01,2.584524713966594689e+01,2.579753710780256171e+01,2.574953792423091059e+01,2.570124958895100065e+01,2.565296125367109070e+01,2.560467291839118076e+01,2.555667373481953319e+01,2.550896370295615156e+01,2.546154282280103232e+01,2.541470024606243427e+01,2.536843597274036455e+01,2.532303915454307841e+01,2.527850979147059007e+01,2.523455873181462294e+01,2.519176427899171244e+01,2.515012643300184791e+01,2.510964519384504001e+01,2.507032056152128163e+01,2.503215253603056922e+01,2.499543026908117938e+01,2.495986460896483905e+01,2.492603385909807301e+01,2.489364886777262598e+01,2.486270963498849085e+01,2.483350531245393000e+01
2.480574674846069172e+01,2.477972309471702772e+01,2.475572350293120394e+01,2.473316966968669917e+01,2.471235074669176868e+01,2.469297758223814654e+01,2.467562847974236817e+01,2.466001428749617475e+01,2.464613500549955560e+01,2.463399063375251075e+01,2.462329202054678134e+01,2.461432831759062623e+01,2.460681037317579722e+01,2.460131649071879778e+01,2.459697921509485141e+01,2.459466600142874881e+01,2.459379854630396167e+01,2.459437684972048999e+01,2.459697921509485141e+01,2.460131649071879778e+01,2.460767782830058437e+01,2.461577407613194524e+01,2.462618353762940870e+01,2.463919536450124070e+01,2.465423125333091292e+01,2.467244781095148198e+01,2.469326673394640537e+01,2.471726632573223625e+01,2.474473573801721216e+01,2.477596412250960967e+01,2.481095147920942523e+01,2.484998695982492123e+01,2.489335971606436360e+01,2.494135889963601471e+01,2.499398451053986392e+01,2.505123654877592543e+01,2.511340416605245807e+01,2.518019821066119590e+01,2.525161868260213893e+01,2.532766558187529071e+01,2.540804975677238531e+01,2.549190375216863558e+01,2.557951671977230745e+01,2.567002120445860669e+01,2.576254975110274614e+01,2.585681320799645988e+01,2.595223327172323025e+01,2.604736418374173468e+01,2.614220594405198028e+01,2.623502364240438212e+01,2.632581727879894729e+01,2.641343024640261206e+01,2.649728424179886588e+01,2.657651180986290740e+01
2.665053464717822251e+01,2.671935275374479701e+01,2.678209867443785086e+01,2.683906156096564999e+01,2.688937395820340370e+01,2.693332501785936728e+01,2.697091473993355137e+01,2.700185397271768650e+01,2.702614271621176911e+01,2.704407012212407579e+01,2.705592534216285472e+01,2.706170837632811654e+01,2.706199752803637892e+01,2.705708194899591135e+01,2.704725079091496553e+01,2.703337150891834284e+01,2.701602240642256447e+01,2.699664924196895299e+01,2.697611947068228133e+01,2.695616800281214509e+01,2.693852974860810434e+01,2.692522877002800996e+01,2.691915658415448220e+01,2.692320470807016264e+01,2.694026465885768218e+01,2.697380625701618584e+01,2.702643186792003505e+01,2.710103300865187137e+01,2.720021204458605979e+01,2.732657134109696528e+01,2.748126750501763382e+01,2.766516799147285965e+01,2.787740534533785564e+01,2.811682295977956159e+01,2.838052931771536436e+01,2.866534375035435289e+01,2.896635067865607027e+01,2.927574300649740735e+01,2.958455703092222322e+01,2.988238329043304731e+01,3.015736656499109714e+01,3.039591672430801594e+01,3.058270872784587624e+01,3.070126092823367969e+01,3.073595913322522932e+01,3.067379151594870024e+01,3.050868589053056823e+01,3.024208801551213455e+01,2.988556395922394060e+01,2.946398076857658310e+01,2.901637392418555450e+01,2.859305582328861561e+01,2.825301341437140579e+01,2.805552279762781964e+01
2.805581194933608202e+01,2.829927768769347551e+01,2.881136536302713225e+01,2.957906314846523088e+01,3.053066142035855179e+01,3.153633106169703737e+01,3.242836408168818707e+01,3.304396806857998570e+01,3.330275884747531023e+01,3.323480819603351932e+01,3.296907777613988344e+01,3.270594972162060543e+01,3.258248194219233795e+01,3.259115649344021648e+01,3.260069849981289991e+01,3.240060551769494879e+01,3.193131229518420611e+01,3.151348807674425956e+01,3.185584369932758264e+01,3.397445826577010308e+01,3.886536109945684814e+01,4.704613954121262509e+01,5.836180249237433060e+01,7.192070439623989841e+01,8.622503940400730471e+01,9.957806529158965247e+01,1.103460749073013574e+02,1.171700552223066438e+02,1.192259238680561140e+02,1.162910340291873155e+02,1.087904387168467650e+02,9.786339566159043102e+01,8.512915442969077162e+01,7.232840830489062967e+01,6.102835954597512114e+01,5.217164272188141183e+01,4.595141117372914152e+01,4.199870732177482324e+01,3.958350984816701157e+01,3.798172504507365232e+01,3.675560614135549287e+01,3.570763360509813822e+01,3.483670865981017783e+01,3.423209243783238520e+01,3.390448355237047906e+01,3.381687058476680363e+01,3.390824252457789356e+01,3.407132408803818890e+01,3.421705654900271298e+01,3.428327229019492250e+01,3.423122498270759451e+01,3.409792604519838477e+01,3.398024129993537201e+01,3.399238567168240621e+01
3.423122498270759451e+01,3.472914422433636616e+01,3.544219233691276116e+01,3.628090578190023763e+01,3.713604304391704147e+01,3.790726848019593831e+01,3.851720220208869705e+01,3.891555494449420394e+01,3.908576409756318526e+01,3.905060324983841724e+01,3.887302651124289810e+01,3.865066219709940754e+01,3.850432916803682559e+01,3.856029448117111968e+01,3.892461985054825391e+01,3.964810633979294607e+01,4.068882116817290040e+01,4.190039574096542196e+01,4.306856864234767812e+01,4.399154089512297361e+01,4.455220605744480622e+01,4.474044381952398197e+01,4.462044586059484885e+01,4.425264488768440430e+01,4.369197972536256458e+01,4.307868895213688631e+01,4.265479254782342622e+01,4.274298381884361930e+01,4.354740387123110423e+01,4.485755026137046286e+01,4.615699803830410275e+01,4.690272029391420716e+01,4.728873782444522789e+01,4.965804692195171555e+01,5.768923561895473995e+01,7.297899964848222965e+01,9.443116488450939983e+01,1.222822574243953113e+02,1.597592103323543711e+02,2.049854290217600408e+02,2.408460238805293443e+02,2.431042987220628504e+02,2.060090260690108437e+02,1.521660864733696883e+02,1.103316173218882028e+02,9.038014945174568027e+01,8.426459082198459782e+01,8.258461939697693310e+01,8.257305332864643788e+01,8.414025558743153965e+01,8.554553288958939561e+01,8.408820827994421165e+01,7.862613251085736010e+01,7.056458288448671112e+01
6.252587624306885772e+01,5.635017405798910062e+01,5.257616596174126045e+01,5.083171370579096049e+01,5.021957953939832464e+01,4.979423737654355619e+01,4.895396251233146501e+01,4.756574516096111438e+01,4.586032838562632463e+01,4.417948950549387632e+01,4.279965755366315250e+01,4.186020365351687644e+01,4.135748449353093292e+01,4.121149179602898016e+01,4.132530190840127915e+01,4.160112372291327887e+01,4.194694916599575407e+01,4.227166653437503641e+01,4.248101237115740503e+01,4.249749401852838560e+01,4.227629296170724160e+01,4.181654174556917525e+01,4.115886618512513451e+01,4.037370363650795468e+01,3.954198766286044275e+01,3.873959745546495981e+01,3.802634115365862044e+01,3.743875596729751010e+01,3.698666727142840926e+01,3.665463436483008053e+01,3.640694701153205415e+01,3.619635782240415978e+01,3.597501218972887926e+01,3.570300717776593302e+01,3.535371191418430925e+01,3.491477962104117694e+01,3.438823436029436920e+01,3.378940117248182418e+01,3.314401455963895415e+01,3.248388120967467785e+01,3.184167526562269401e+01,3.124602274660104939e+01,3.071918833414598282e+01,3.027534046196237938e+01,2.992141877104854331e+01,2.965857986823753478e+01,2.948104071936409198e+01,2.937897016634727620e+01,2.934022383744004259e+01,2.935121160235403437e+01,2.940007824105046907e+01,2.947641429203188324e+01,2.957241265917517836e+01,2.968113370148204311e+01
2.979881844674505587e+01,2.992228622617332690e+01,3.005038043293381378e+01,3.018223361190171161e+01,3.031755661136876512e+01,3.045519282450191767e+01,3.059427479617639278e+01,3.073364591955913028e+01,3.087186043610880759e+01,3.100805089070065179e+01,3.114106067650160270e+01,3.127031149009513555e+01,3.139522502806472559e+01,3.151580129041036571e+01,3.163232942884033250e+01,3.174480944335461174e+01,3.185324133395321766e+01,3.195820340405265725e+01,3.205998480536121065e+01,3.215800723446234599e+01,3.225284899477259160e+01,3.234479923800019918e+01,3.243385796414519007e+01,3.252089262833233363e+01,3.260619238226989580e+01,3.269062468108268149e+01,3.277505697989545297e+01,3.286093503724953990e+01,3.294912630826974009e+01,3.304078739978908885e+01,3.313765322205716757e+01,3.324059123019877404e+01,3.335104718275521662e+01,3.347046683826781077e+01,3.360000680356960601e+01,3.374082368549365896e+01,3.389378493916474611e+01,3.406004717141593119e+01,3.423989953395548014e+01,3.443392033019991061e+01,3.464239871185748143e+01,3.486562383063647275e+01,3.510301738312033848e+01,3.535486852101735167e+01,3.562030978920273583e+01,3.589948576353059906e+01,3.619147115853450458e+01,3.649565875562711881e+01,3.681132567553775914e+01,3.713766229348330938e+01,3.747383006950980189e+01,3.781893263332162292e+01,3.817210252979396756e+01,3.853241736497749059e+01
3.889896631099116320e+01,3.927085010602228721e+01,3.964720996949732523e+01,4.002715531415483241e+01,4.040981868486998962e+01,4.079436154168887185e+01,4.117991642948667419e+01,4.156555806279694565e+01,4.195070813820317568e+01,4.233412330335982432e+01,4.271551440655863985e+01,4.309372484096655853e+01,4.346817630316705561e+01,4.383800133803535459e+01,4.420233249044665769e+01,4.456088060869269896e+01,4.491248908594042177e+01,4.525686877048157442e+01,4.559315220719137329e+01,4.592047194094501350e+01,4.623853882003424332e+01,4.654677454104253087e+01,4.684402249713683375e+01,4.713057184002540367e+01,4.740526596287518402e+01,4.766781571397793726e+01,4.791764278991710313e+01,4.815445803898445121e+01,4.837768315776344252e+01,4.858673984283753811e+01,4.878133894249849334e+01,4.896119130503804229e+01,4.912571862703965309e+01,4.927463175679506691e+01,4.940735239088774478e+01,4.952359137760945629e+01,4.962334871696015881e+01,4.970575695381510428e+01,4.977110523988253021e+01,4.981823696832938708e+01,4.984773044257219254e+01,4.985871820748619143e+01,4.985120026307135532e+01,4.982459830591116656e+01,4.977949063942214991e+01,4.971500980847951467e+01,4.963144496479152679e+01,4.952879610835818625e+01,4.940735239088774478e+01,4.926682466067196486e+01,4.910779122112734996e+01,4.893025207225390716e+01,4.873449636575990240e+01,4.852139155677011928e+01
4.829093764528455779e+01,4.804400208642800862e+01,4.778087403190873772e+01,4.750271008855979460e+01,4.721008855979771113e+01,4.690416605245551551e+01,4.658523171824150211e+01,4.625473131569696505e+01,4.591353229994670215e+01,4.556279127782376293e+01,4.520337570445293807e+01,4.483673133837553593e+01,4.446372563471634720e+01,4.408580435201668735e+01,4.370412409710962010e+01,4.331984147682817365e+01,4.293440224971368480e+01,4.254925217430745477e+01,4.216525870573427426e+01,4.178386760253545873e+01,4.140620655637324177e+01,4.103372132578892462e+01,4.066739502659061145e+01,4.030844209595301209e+01,3.995784564968420227e+01,3.961667554910476241e+01,3.928588599485196653e+01,3.896631552687976807e+01,3.865881743187926389e+01,3.836412239621721909e+01,3.808287031262401712e+01,3.781566521901824984e+01,3.756297554116726189e+01,3.732517717629182386e+01,3.710267493678350093e+01,3.689567122883806150e+01,3.670439737382213252e+01,3.652891120207736009e+01,3.636929945911621331e+01,3.622547539942623018e+01,3.609735227749492736e+01,3.598478551746816123e+01,3.588745705246686413e+01,3.580507773078275591e+01,3.573712707934095789e+01,3.568363401331232154e+01,3.564315277415551009e+01,3.561597251357878946e+01,3.560093662474911724e+01,3.559775595595822040e+01,3.560527390037306361e+01,3.562291215457710081e+01,3.564980326344555550e+01,3.568507977185362989e+01
3.572787422467654750e+01,3.577760831849776935e+01,3.583312544648425302e+01,3.589370272936533723e+01,3.595847271201623130e+01,3.602668359999546510e+01,3.609749685334905678e+01,3.617024742314801244e+01,3.624418351495084067e+01,3.631861116465772454e+01,3.639295206885212508e+01,3.646657009377586434e+01,3.653894476635408495e+01,3.660952669834105677e+01,3.667791107734525013e+01,3.674360634546258098e+01,3.680623660547233555e+01,3.686542596015375750e+01,3.692091417296941813e+01,3.697238317704022137e+01,3.701960165099955447e+01,3.706236718865164903e+01,3.710056412931317738e+01,3.713404789713003140e+01,3.716281849210218979e+01,3.718681808388801358e+01,3.720607558765832579e+01,3.722070666409642570e+01,3.723079805871480374e+01,3.723646543219675920e+01,3.723796902107972784e+01,3.723542448604700894e+01,3.722914989397770569e+01,3.721931873589676343e+01,3.720624907868328535e+01,3.719023007404551606e+01,3.717149304335008253e+01,3.715035605347605241e+01,3.712710825613172005e+01,3.710200988785449994e+01,3.707535010035265088e+01,3.704738913016362289e+01,3.701838721382485176e+01,3.698860458787376615e+01,3.695821474333533985e+01,3.692750683191781036e+01,3.689668325981698160e+01,3.686591751805780603e+01,3.683544092800689640e+01,3.680539806551837501e+01,3.677599133678803867e+01,3.674739423284083273e+01,3.671969349918924053e+01,3.669309154202905177e+01
3.666767510687273557e+01,3.664350202406195933e+01,3.662068795428001522e+01,3.659929072786854931e+01,3.657931034482758292e+01,3.656074680515710185e+01,3.654360010885711318e+01,3.652787025592760983e+01,3.651347050085611556e+01,3.650031409813015415e+01,3.648834321740806530e+01,3.647744219800655685e+01,3.646752429441313126e+01,3.645841601560285028e+01,3.645000170089240044e+01,3.644219460476929839e+01,3.643476340586694562e+01,3.642765027384367471e+01,3.642068171767454032e+01,3.641371316150540594e+01,3.640660002948213503e+01,3.639925557609225137e+01,3.639150631031080962e+01,3.638323657145448919e+01,3.637430178366916067e+01,3.636464411661318508e+01,3.635406116409075850e+01,3.634246618058941891e+01,3.632977242059666878e+01,3.631586422342922305e+01,3.630059701323294519e+01,3.628391295966617491e+01,3.626569640204560585e+01,3.624588951002959192e+01,3.622443445327648703e+01,3.620121557110297061e+01,3.617626177867987991e+01,3.614945741532390855e+01,3.612083139620587957e+01,3.609035480615495572e+01,3.605802764517116543e+01,3.602384991325448738e+01,3.598787944074657474e+01,3.595014514281826479e+01,3.591067593464037344e+01,3.586950073138372375e+01,3.582673519373164339e+01,3.578240823685493410e+01,3.573654877592444024e+01,3.568941704747757626e+01,3.564083956048940394e+01,3.559110546666817498e+01,3.553992561430563768e+01,3.548787830681830968e+01
3.543467439249792506e+01,3.538060302305275684e+01,3.532566419848280503e+01,3.526985791878805543e+01,3.521318418396852223e+01,3.515622129744072311e+01,3.509839095578813328e+01,3.504027146242729174e+01,3.498157366564991122e+01,3.492229756545600594e+01,3.486302146526210066e+01,3.480345621335994366e+01,3.474360180974951362e+01,3.468374740613908358e+01,3.462389300252866065e+01,3.456403859891823771e+01,3.450389504359954174e+01,3.444404063998911880e+01,3.438418623637868166e+01,3.432462098447652465e+01,3.426505573257435344e+01,3.420549048067219644e+01,3.414621438047829116e+01,3.408693828028439299e+01,3.402766218009048771e+01,3.396867523160484126e+01,3.390997743482747495e+01,3.385127963805009443e+01,3.379258184127272102e+01,3.373388404449534761e+01,3.367547539942623303e+01,3.361706675435711844e+01,3.355865810928800386e+01,3.350024946421888927e+01,3.344212997085804062e+01,3.338372132578893314e+01,3.332560183242807739e+01,3.326719318735896280e+01,3.320878454228984822e+01,3.315066504892900667e+01,3.309225640385989209e+01,3.303384775879077750e+01,3.297543911372166292e+01,3.291703046865254834e+01,3.285833267187518203e+01,3.279963487509780151e+01,3.274122623002868693e+01,3.268252843325131352e+01,3.262354148476567417e+01,3.256484368798829365e+01,3.250614589121092024e+01,3.244715894272528089e+01,3.238846114594790038e+01,3.232976334917053407e+01
3.227077640068488762e+01,3.221207860390751421e+01,3.215338080713014079e+01,3.209497216206102621e+01,3.203656351699191873e+01,3.197815487192280060e+01,3.192003537856194839e+01,3.186220503690936567e+01,3.180466384696504178e+01,3.174741180872898028e+01,3.169044892220118115e+01,3.163377518738164795e+01,3.157739060427037003e+01,3.152158432457562753e+01,3.146635634829740624e+01,3.141141752372744733e+01,3.135705700257401674e+01,3.130327478483711090e+01,3.124978171880847100e+01,3.119715610790461469e+01,3.114510880041728313e+01,3.109363979634647990e+01,3.104274909569220853e+01,3.099272585016271719e+01,3.094328090804975062e+01,3.089470342106158185e+01,3.084670423748993784e+01,3.079928335733481504e+01,3.075272993230447938e+01,3.070704396239894152e+01,3.066193629590992131e+01,3.061769608454568825e+01,3.057432332830624944e+01,3.053152887548333894e+01,3.048989102949347441e+01,3.044883148692013819e+01,3.040835024776332673e+01,3.036902561543956480e+01,3.033027928653233118e+01,3.029240041274988826e+01,3.025509984238397010e+01,3.021866672714283908e+01,3.018310106702649875e+01,3.014840286203494557e+01,3.011428296045991715e+01,3.008103051400967942e+01,3.004835637097597001e+01,3.001654968306704774e+01,2.998532129857465378e+01,2.995496036920704341e+01,2.992546689496422374e+01,2.989655172413793238e+01,2.986879316014469055e+01,2.984132374785970754e+01
2.981501094240778471e+01,2.978956559208064547e+01,2.976527684858655576e+01,2.974156640850899436e+01,2.971901257526448958e+01,2.969761534885303433e+01,2.967708557756636267e+01,2.965800156482101002e+01,2.963978500720044096e+01,2.962272505641293563e+01,2.960711086416673155e+01,2.959265327875358764e+01,2.957964145188175564e+01,2.956778623184296961e+01,2.955708761863724376e+01,2.954783476397283337e+01,2.953973851614146895e+01,2.953279887514315760e+01,2.952730499268616171e+01,2.952296771706221890e+01,2.951978704827132560e+01,2.951805213802175132e+01,2.951718468289696418e+01,2.951776298631348538e+01,2.951920874485480084e+01,2.952181111022916937e+01,2.952557008243658032e+01,2.953048566147705856e+01,2.953626869564231328e+01,2.954291918493236224e+01,2.955043712934719125e+01,2.955911168059508043e+01,2.956807538355123199e+01,2.957819569334043663e+01,2.958860515483790721e+01,2.959959291975189544e+01,2.961115898808241553e+01,2.962301420812119446e+01,2.963515857986823576e+01,2.964730295161527707e+01,2.965973647507058431e+01,2.967216999852589154e+01,2.968460352198120233e+01,2.969703704543650247e+01,2.970947056889180971e+01,2.972190409234711694e+01,2.973404846409415825e+01,2.974648198754946904e+01,2.975891551100477272e+01,2.977134903446007996e+01,2.978436086133191196e+01,2.979766183991200634e+01,2.981183027361689142e+01,2.982686616244656364e+01
2.984276950640102299e+01,2.985982945718853898e+01,2.987833516651736687e+01,2.989857578609576549e+01,2.992055131592375261e+01,2.994455090770957995e+01,2.997086371316150988e+01,2.999920058057126937e+01,3.003013981335540450e+01,3.006339225980564223e+01,3.009866876821372017e+01,3.013625849028790427e+01,3.017558312261166265e+01,3.021635351347673648e+01,3.025828051117486694e+01,3.030078581228951151e+01,3.034329111340416318e+01,3.038550726281055603e+01,3.042627765367562986e+01,3.046560228599938824e+01,3.050261370465704402e+01,3.053644445452380651e+01,3.056680538389141688e+01,3.059282903763508088e+01,3.061393711233827020e+01,3.062984045629272956e+01,3.064053906949846251e+01,3.064545464853893364e+01,3.064487634512240533e+01,3.063880415924888112e+01,3.062723809091836813e+01,3.061075644354738046e+01,3.058907006542766283e+01,3.056275725997573289e+01,3.053152887548333894e+01,3.049538491195047030e+01,3.045432536937713408e+01,3.040835024776332673e+01,3.035745954710905181e+01,3.030165326741430576e+01,3.024064225697082620e+01,3.017442651577861312e+01,3.010300604383766654e+01,3.002609168943972406e+01,2.994455090770957995e+01,2.985867285035548591e+01,2.976874666908571498e+01,2.967650727414983791e+01,2.958253296896438300e+01,2.948942611890371879e+01,2.939949993763394431e+01,2.931506763882116928e+01,2.923902073954801395e+01,2.917425075689711633e+01
2.912480581478415687e+01,2.909502318883307481e+01,2.908952930637608247e+01,2.911323974645363677e+01,2.916962432956491114e+01,2.926099626937599751e+01,2.938822302101169015e+01,2.955043712934719125e+01,2.974301216705030981e+01,2.995756273458140839e+01,3.018194446019344568e+01,3.040198891018154015e+01,3.060352765084080673e+01,3.077383800700767935e+01,3.090164306205989320e+01,3.097942487158262637e+01,3.100255700824365945e+01,3.097306353400083978e+01,3.089932984839379060e+01,3.079465693000260984e+01,3.067465897107349093e+01,3.055697422581047107e+01,3.046097585866718305e+01,3.040892855117985150e+01,3.042338613659299895e+01,3.052285432423544975e+01,3.071774257560466737e+01,3.101267731803286054e+01,3.140939346176960711e+01,3.190239712435791120e+01,3.246797786572020783e+01,3.304483552370476218e+01,3.353089954529476557e+01,3.380154554422887259e+01,3.374747417478370437e+01,3.333687874905033510e+01,3.264464955946886704e+01,3.184572338953837800e+01,3.118096361224188584e+01,3.084612593407340597e+01,3.089296851081200401e+01,3.121479436210865543e+01,3.156177641202417661e+01,3.173179761648277619e+01,3.181709737042034902e+01,3.229940241980292370e+01,3.408028779099434047e+01,3.822897867080928336e+01,4.551363548741906584e+01,5.608357618297066693e+01,6.919978682148567373e+01,8.327280046264272073e+01,9.629619340280532924e+01,1.062545782353808193e+02
1.116299084919887861e+02,1.117802673802855224e+02,1.069456508181292520e+02,9.816122192110125866e+01,8.700864053339985560e+01,7.514763746045424853e+01,6.404681422853191464e+01,5.470027441064078033e+01,4.745210853961378206e+01,4.214733129982197113e+01,3.831855787002913871e+01,3.541212055925341673e+01,3.306652190182449402e+01,3.115060268287428258e+01,2.969298892152082203e+01,2.880066674982140285e+01,2.850775606935105344e+01,2.872346324371520510e+01,2.927834537187177233e+01,2.995553867262356817e+01,3.055899828776831484e+01,3.096323237591990107e+01,3.111098889884226182e+01,3.101788204878159050e+01,3.075822381476147882e+01,3.043148238442435982e+01,3.013683679370443258e+01,2.994512921112610471e+01,2.988527480751567111e+01,2.995062309358310060e+01,3.011110229166902741e+01,3.032825522457449452e+01,3.056593792876662619e+01,3.079465693000260984e+01,3.099735227749492594e+01,3.117315651611879090e+01,3.133941874836997599e+01,3.153083717924004148e+01,3.179367608205104645e+01,3.218171767453991094e+01,3.273862386465431484e+01,3.347567156901654783e+01,3.434110263184750522e+01,3.520190726734627162e+01,3.586553935298052664e+01,3.614916826361564972e+01,3.595026080350157116e+01,3.530224291011350601e+01,3.438071641587952598e+01,3.344617809477372816e+01,3.281322500538615827e+01,3.280570706097132216e+01,3.366737915159487216e+01,3.546474617015726949e+01
3.791721529896018694e+01,4.042528830126206429e+01,4.233932803410856138e+01,4.324755354976243638e+01,4.420551315923754743e+01,4.871570150472280147e+01,5.986249985825895692e+01,7.713700121330323611e+01,9.981806120944789029e+01,1.308035582669040480e+02,1.709146832371383766e+02,2.102277494925670567e+02,2.294939278141264936e+02,2.137929900554490814e+02,1.687894181814058356e+02,1.205907199310571372e+02,9.180566737348195261e+01,8.218269852249146368e+01,7.953696039188560007e+01,7.848733969089113316e+01,7.954852646021613793e+01,8.120825726564537206e+01,8.068489267368946116e+01,7.654424021136422596e+01,6.912171586025468173e+01,6.050904307793488357e+01,5.310357867761285178e+01,4.809807345587317684e+01,4.549831044688112769e+01,4.461292791618001985e+01,4.450102620508226892e+01,4.437871503248705096e+01,4.385477213711460820e+01,4.295146220050119013e+01,4.188709476238533114e+01,4.086945424032475671e+01,4.002169034686865245e+01,3.935736429713455919e+01,3.883320164646384853e+01,3.841262470376123161e+01,3.807445599791357438e+01,3.780869666284910835e+01,3.760565433330688023e+01,3.744638957239565258e+01,3.731060393019537713e+01,3.718650001700892460e+01,3.707248749844085012e+01,3.697434940865640840e+01,3.690006633480366105e+01,3.685458277109390224e+01,3.683671319552325230e+01,3.683674211069407534e+01,3.683492045493201772e+01,3.680314268219392204e+01
3.671032498384152376e+01,3.652931601446892529e+01,3.624305582328862130e+01,3.584740954087244091e+01,3.535082039710167834e+01,3.477338443570059212e+01,3.414245540827087666e+01,3.349099660955447888e+01,3.285168218258512240e+01,3.225342729818911636e+01,3.171705087936137346e+01,3.125527560126546334e+01,3.087301704294186422e+01,3.056911859755751948e+01,3.033750807923890846e+01,3.017095669527945745e+01,3.006107904613953608e+01,3.000122464252911314e+01,2.998589960199117499e+01,3.001163410402658016e+01,3.007611493496921184e+01,3.017616142602818385e+01,3.030917121182913831e+01,3.047138532016464296e+01,3.065788817199423733e+01,3.086347503656918434e+01,3.108207372801596691e+01,3.130732290875279134e+01,3.153430699973919715e+01,3.175811042193470612e+01,3.197584165825669444e+01,3.218547664674732545e+01,3.238528047715701064e+01,3.257525314948576067e+01,3.275626211885835914e+01,3.292888568869133081e+01,3.309485876923425707e+01,3.325504881561192860e+01,3.341090158636564666e+01,3.356328453662020905e+01,3.371277596979214763e+01,3.386082164442277076e+01,3.400742156051208553e+01,3.415257571806007775e+01,3.429657326877501333e+01,3.443912506094864767e+01,3.458080939799747711e+01,3.472133712821327123e+01,3.486041909988774279e+01,3.499892276814568959e+01,3.513684813298710452e+01,3.527448434612026062e+01,3.541212055925341673e+01,3.555091337921962946e+01
3.569115195772715055e+01,3.583344351336334910e+01,3.597859767091134131e+01,3.612736622481261861e+01,3.628055879985032561e+01,3.643898502080758561e+01,3.660351234280919641e+01,3.677486364512581218e+01,3.695376180702808711e+01,3.714092970778668956e+01,3.733694565081812300e+01,3.754233010919729452e+01,3.775745898014491786e+01,3.798265033054008200e+01,3.821813548174942099e+01,3.846400407080248129e+01,3.872024742314800960e+01,3.898675855265395995e+01,3.926333216160745820e+01,3.954965018312941538e+01,3.984530780482825918e+01,4.014984238397078542e+01,4.046273344748211542e+01,4.078334486160404992e+01,4.111109832292009258e+01,4.144524203698874487e+01,4.178502420936850825e+01,4.212998219732619276e+01,4.247869915749129888e+01,4.283088593815554646e+01,4.318538593248590729e+01,4.354162083706584241e+01,4.389843404506230939e+01,4.425524725305876927e+01,4.461119300593043846e+01,4.496540384855254047e+01,4.531730147750853632e+01,4.566572928596536940e+01,4.601068727392304680e+01,4.635101883454852612e+01,4.668614566442526836e+01,4.701577861184501472e+01,4.733876106997471567e+01,4.765509303881436409e+01,4.796390706323918351e+01,4.826491399154089379e+01,4.855724636859471843e+01,4.884061504269239862e+01,4.911473086212566130e+01,4.937872637176972290e+01,4.963260157162456920e+01,4.987519985485717200e+01,5.010681037317579012e+01,5.032656567145561866e+01
5.053388744628014706e+01,5.072848654594110229e+01,5.090978466702195959e+01,5.107749265781446013e+01,5.123074306319382032e+01,5.136953588316001884e+01,5.149300366258830763e+01,5.160085724977037813e+01,5.169251834128972689e+01,5.176769778543809508e+01,5.182581727879894373e+01,5.186629851795574808e+01,5.188885235120025641e+01,5.189261132340767801e+01,5.187757543457801290e+01,5.184316638129472210e+01,5.178938416355781271e+01,5.171536132624250115e+01,5.162138702105703914e+01,5.150688294458491612e+01,5.137184909682613210e+01,5.121657462948893880e+01,5.104077039086507028e+01,5.084443638095453366e+01,5.062815090317386080e+01,5.039191395752304459e+01,5.013601469571035096e+01,4.986132057286055641e+01,4.956840989239020701e+01,4.925757180600754737e+01,4.893025207225390716e+01,4.858702899454580404e+01,4.822905917971629464e+01,4.785692093118189661e+01,4.747234915919218423e+01,4.707592216716370359e+01,4.666937486534601476e+01,4.625328555715565670e+01,4.582938915284218950e+01,4.539913141094694282e+01,4.496309063488643432e+01,4.452358003832677014e+01,4.408117792468448215e+01,4.363790835591740347e+01,4.319463878715032479e+01,4.275339328034107922e+01,4.231503929061447167e+01,4.188160087992833525e+01,4.145388767306579325e+01,4.103366349544727854e+01,4.062214278424746539e+01,4.022062672215356116e+01,3.983035866151107030e+01,3.945246629398224059e+01
3.908801948088764533e+01,3.873798398893286077e+01,3.840327642903309879e+01,3.808472088355690488e+01,3.778307782149701666e+01,3.749901518329950534e+01,3.723308235721008685e+01,3.698574198596196538e+01,3.675739888194672744e+01,3.654831328170180171e+01,3.635868759142296369e+01,3.618860855662271092e+01,3.603804726213019904e+01,3.590688804726212879e+01,3.579489959065189453e+01,3.570185057093288350e+01,3.562724943020104718e+01,3.557057569538150688e+01,3.553154021476601088e+01,3.550927553322976138e+01,3.550291419564798190e+01,3.551187789860413346e+01,3.553529918697343248e+01,3.557202145392282233e+01,3.562117724432752652e+01,3.568160995135447422e+01,3.575248103504972619e+01,3.583251822789689811e+01,3.592059383823379193e+01,3.601566691991065028e+01,3.611658086609441654e+01,3.622220798512285711e+01,3.633153624601707321e+01,3.644343795711483125e+01,3.655690108743721112e+01,3.667097143634693879e+01,3.678469480320674734e+01,3.689714590255019999e+01,3.700754402476498939e+01,3.711505062989714787e+01,3.721894283867602837e+01,3.731852668700177844e+01,3.741322387145789463e+01,3.750242717345700783e+01,3.758564503509508370e+01,3.766244372880971270e+01,3.773241844220934382e+01,3.779525110841487390e+01,3.785071040605971149e+01,3.789859392894805268e+01,3.793881493156742835e+01,3.797128666840536226e+01,3.799606696980348630e+01,3.801318475093265903e+01
3.802281350281780448e+01,3.802515563165474077e+01,3.802044245881005935e+01,3.800899205116284207e+01,3.799112247559219924e+01,3.796726745966049776e+01,3.793777398541768520e+01,3.790316252593861179e+01,3.786383789361484986e+01,3.782032056152127808e+01,3.777307317239111484e+01,3.772258728412840156e+01,3.766935445463719390e+01,3.761386624182154037e+01,3.755658528841465227e+01,3.749794532197893204e+01,3.743843790041841402e+01,3.737843892095386167e+01,3.731841102631847917e+01,3.725870119856217855e+01,3.719968533490570906e+01,3.714171041739899692e+01,3.708509451292110981e+01,3.703015568835115801e+01,3.697712526505573294e+01,3.692623456440145446e+01,3.687771490775492822e+01,3.683168195579947479e+01,3.678830919956003243e+01,3.674765446937826852e+01,3.670980451076664508e+01,3.667478823889601358e+01,3.664254782342469241e+01,3.661311217952351882e+01,3.658636564650920064e+01,3.656225039404007049e+01,3.654056401592035286e+01,3.652121976663756442e+01,3.650401523999591546e+01,3.648877694497046065e+01,3.647527356019457301e+01,3.646327376430166822e+01,3.645260406626676541e+01,3.644297531438161286e+01,3.643421401762124390e+01,3.642605993944822984e+01,3.641828175849595084e+01,3.641067706856864561e+01,3.640301454829968009e+01,3.639509179149326457e+01,3.638670639195364487e+01,3.637765594348500997e+01,3.636776695506242163e+01,3.635686593566090608e+01
3.634477939425551796e+01,3.633136275499212076e+01,3.631647144201657795e+01,3.630001870981642043e+01,3.628188889770832759e+01,3.626202417535066758e+01,3.624033779723094995e+01,3.621677193300751441e+01,3.619129766750955213e+01,3.616391500073705600e+01,3.613465284786084197e+01,3.610351120888091714e+01,3.607051899896811875e+01,3.603573404846409289e+01,3.599924310288131579e+01,3.596110399256143353e+01,3.592146129335858262e+01,3.588040175078524641e+01,3.583801211035389400e+01,3.579443694791866903e+01,3.574982083933370092e+01,3.570416378459898255e+01,3.565789951127691637e+01,3.561076778283005240e+01,3.556334690267493670e+01,3.551534771910328914e+01,3.546705938382337564e+01,3.541848189683520332e+01,3.536990440984703099e+01,3.532161607456711749e+01,3.527332773928721110e+01,3.522532855571557064e+01,3.517790767556044074e+01,3.513077594711359097e+01,3.508451167379151769e+01,3.503853655217771035e+01,3.499342888568868659e+01,3.494918867432446064e+01,3.490581591808501827e+01,3.486331061697036660e+01,3.482196192268876445e+01,3.478148068353196010e+01,3.474186689949993934e+01,3.470340972230096810e+01,3.466610915193504638e+01,3.462967603669392247e+01,3.459439952828584097e+01,3.456027962671081610e+01,3.452702718026057482e+01,3.449493134064338307e+01,3.446370295615098911e+01,3.443334202678337874e+01,3.440413770424883211e+01,3.437551168513080313e+01
3.434804227284582367e+01,3.432115116397736188e+01,3.429541666194196381e+01,3.426997131161482457e+01,3.424568256812074196e+01,3.422168297633491818e+01,3.419855083967388509e+01,3.417599700642937677e+01,3.415402147660139320e+01,3.413233509848167557e+01,3.411151617548673443e+01,3.409098640420007342e+01,3.407074578462167125e+01,3.405108346845978673e+01,3.403171030400616814e+01,3.401262629126081549e+01,3.399383143022372167e+01,3.397532572089489378e+01,3.395710916327432471e+01,3.393918175736202869e+01,3.392154350315799149e+01,3.390390524895395430e+01,3.388655614645817593e+01,3.386949619567066350e+01,3.385214709317488513e+01,3.383537629409563152e+01,3.381831634330811909e+01,3.380183469593713141e+01,3.378506389685788491e+01,3.376829309777863131e+01,3.375181145040765074e+01,3.373532980303666307e+01,3.371913730737393422e+01,3.370265566000295365e+01,3.368617401263195887e+01,3.366998151696923713e+01,3.365378902130650829e+01,3.363730737393552062e+01,3.362111487827279888e+01,3.360463323090181120e+01,3.358844073523908946e+01,3.357195908786809468e+01,3.355547744049711412e+01,3.353899579312612644e+01,3.352222499404687284e+01,3.350574334667588516e+01,3.348897254759663866e+01,3.347220174851738506e+01,3.345543094943813855e+01,3.343837099865062612e+01,3.342131104786311369e+01,3.340396194536733532e+01,3.338661284287155695e+01,3.336926374037577858e+01
3.335162548617174139e+01,3.333369808025943826e+01,3.331605982605540817e+01,3.329784326843483910e+01,3.327962671081427004e+01,3.326141015319370808e+01,3.324290444386488019e+01,3.322439873453605230e+01,3.320531472179069965e+01,3.318651986075360583e+01,3.316743584800825317e+01,3.314806268355463459e+01,3.312840036739275718e+01,3.310873805123087266e+01,3.308907573506900235e+01,3.306912426719885190e+01,3.304888364762044972e+01,3.302864302804204755e+01,3.300811325675537944e+01,3.298758348546871133e+01,3.296676456247378439e+01,3.294594563947884325e+01,3.292483756477565038e+01,3.290372949007245040e+01,3.288262141536927174e+01,3.286122418895780584e+01,3.283982696254634703e+01,3.281814058442662230e+01,3.279674335801517771e+01,3.277505697989545297e+01,3.275308145006746940e+01,3.273139507194775177e+01,3.270970869382802704e+01,3.268773316400005058e+01,3.266575763417205991e+01,3.264407125605234228e+01,3.262209572622435871e+01,3.260040934810464108e+01,3.257843381827665752e+01,3.255674744015693989e+01,3.253506106203721515e+01,3.251366383562575635e+01,3.249197745750603872e+01,3.247086938280284585e+01,3.244947215639138705e+01,3.242865323339645300e+01,3.240783431040152607e+01,3.238701538740659203e+01,3.236677476782818275e+01,3.234653414824978057e+01,3.232658268037963722e+01,3.230692036421775981e+01,3.228754719976414123e+01,3.226875233872705451e+01
3.224995747768996068e+01,3.223174092006939162e+01,3.221381351415708849e+01,3.219617525995305130e+01,3.217911530916553886e+01,3.216234451008629236e+01,3.214615201442356351e+01,3.213024867046910771e+01,3.211521278163942839e+01,3.210046604451802921e+01,3.208629761081314058e+01,3.207270748052477671e+01,3.205969565365294471e+01,3.204726213019764458e+01,3.203569606186712804e+01,3.202441914524487032e+01,3.201400968374740330e+01,3.200417852566646104e+01,3.199521482271031658e+01,3.198654027146242385e+01,3.197873317533932891e+01,3.197150438263275163e+01,3.196514304505096860e+01,3.195936001088571743e+01,3.195386612842871443e+01,3.194923970109650924e+01,3.194519157718082880e+01,3.194172175668167668e+01,3.193883023959904222e+01,3.193651702593293606e+01,3.193449296397509229e+01,3.193304720543378394e+01,3.193189059860073087e+01,3.193102314347594017e+01,3.193073399176768490e+01,3.193073399176768490e+01,3.193102314347594017e+01,3.193160144689246849e+01,3.193217975030899325e+01,3.193304720543378394e+01,3.193420381226683702e+01,3.193536041909989009e+01,3.193651702593293606e+01,3.193767363276598914e+01,3.193911939130730104e+01,3.194027599814036122e+01,3.194172175668167668e+01,3.194287836351472265e+01,3.194403497034777573e+01,3.194519157718082880e+01,3.194605903230561950e+01,3.194692648743039953e+01,3.194779394255519023e+01,3.194866139767998092e+01
3.194952885280477162e+01,3.195010715622129638e+01,3.195126376305434945e+01,3.195213121817913304e+01,3.195357697672044850e+01,3.195502273526176751e+01,3.195675764551133824e+01,3.195907085917745150e+01,3.196167322455181647e+01,3.196485389334270266e+01,3.196861286555012782e+01,3.197295014117407064e+01,3.197786572021453821e+01,3.198364875437979649e+01,3.199029924366984545e+01,3.199752803637642273e+01,3.200533513249951767e+01,3.201429883545566213e+01,3.202384084182834556e+01,3.203425030332581258e+01,3.204523806823980436e+01,3.205709328827857973e+01,3.206952681173388697e+01,3.208253863860572608e+01,3.209641792060234167e+01,3.211087550601548202e+01,3.212562224313690251e+01,3.214094728367483356e+01,3.215685062762928936e+01,3.217304312329201821e+01,3.218952477066301299e+01,3.220629556974225949e+01,3.222306636882150599e+01,3.223983716790075960e+01,3.225660796698000610e+01,3.227308961435099377e+01,3.228928211001372262e+01,3.230489630225991959e+01,3.231993219108958471e+01,3.233410062479447333e+01,3.234740160337457127e+01,3.235983512682987140e+01,3.237140119516038794e+01,3.238152150494959614e+01,3.239077435961401363e+01,3.239858145573710857e+01,3.240523194502716109e+01,3.241072582748414987e+01,3.241506310310808914e+01,3.241882207531551074e+01,3.242171359239814876e+01,3.242460510948077257e+01,3.242691832314687872e+01,3.242980984022950253e+01
3.243299050902039227e+01,3.243703863293607981e+01,3.244253251539307570e+01,3.244947215639138705e+01,3.245843585934753861e+01,3.246971277596978922e+01,3.248330290625815309e+01,3.249949540192087483e+01,3.251886856637449341e+01,3.254084409620247698e+01,3.256571114311308435e+01,3.259318055539806380e+01,3.262296318134914941e+01,3.265505902096632695e+01,3.268888977083310010e+01,3.272387712753290856e+01,3.275944278764925599e+01,3.279558675118212108e+01,3.283115241129846140e+01,3.286585061629001103e+01,3.289910306274024521e+01,3.293062059894091220e+01,3.295982492147546594e+01,3.298642687863565470e+01,3.301042647042147848e+01,3.303211284854120322e+01,3.305090770957829704e+01,3.306767850865753644e+01,3.308271439748721576e+01,3.309601537606730659e+01,3.310844889952261383e+01,3.312001496785313037e+01,3.313129188447538809e+01,3.314256880109763870e+01,3.315413486942815524e+01,3.316599008946693772e+01,3.317813446121397902e+01,3.319027883296102743e+01,3.320271235641633467e+01,3.321485672816336887e+01,3.322613364478562659e+01,3.323567565115831002e+01,3.324319359557313902e+01,3.324753087119708539e+01,3.324868747803014202e+01,3.324608511265576993e+01,3.323972377507398335e+01,3.322989261699304819e+01,3.321745909353774096e+01,3.320415811495764302e+01,3.319201374321060882e+01,3.318420664708750678e+01,3.318391749537924085e+01,3.319403780516844193e+01
3.321803739695426572e+01,3.325909693952760193e+01,3.331895134313803197e+01,3.339846806291033943e+01,3.349562303688668408e+01,3.360752474798444922e+01,3.372839016203835172e+01,3.385301454829967582e+01,3.397590402431141854e+01,3.409127555590833225e+01,3.419479186746646349e+01,3.428327229019492250e+01,3.435700597580196813e+01,3.441801698624544770e+01,3.446775108006666954e+01,3.450562995384912313e+01,3.452702718026057482e+01,3.452413566317794391e+01,3.448567848597897267e+01,3.439922212520836098e+01,3.425146560228600379e+01,3.403373436596400836e+01,3.374545011282586415e+01,3.339817891120207349e+01,3.301620950458674031e+01,3.263713161505402383e+01,3.230894442617559292e+01,3.208832167277097369e+01,3.202991302770186621e+01,3.216668178571023873e+01,3.248272460284162122e+01,3.290719931057161318e+01,3.333109571488507328e+01,3.364164464955946698e+01,3.378593135198266850e+01,3.380009978568755713e+01,3.378303983490004470e+01,3.387094195421197895e+01,3.413869643606344795e+01,3.451632856705484897e+01,3.482803410856229220e+01,3.483902187347628399e+01,3.442871559945117355e+01,3.382554513601468926e+01,3.363933143589336794e+01,3.479102268990463642e+01,3.828192234859222509e+01,4.474940752248012643e+01,5.421710190613341496e+01,6.601217838959506423e+01,7.880540656998037718e+01,9.096712741951942860e+01,1.009081631495991473e+02,1.072984159022100243e+02
1.093513930308768636e+02,1.069051695789724192e+02,1.003819070405606055e+02,9.081387701414008973e+01,7.960924831895134446e+01,6.824558618421798428e+01,5.803997664107768628e+01,4.979741804533445304e+01,4.368908820827994077e+01,3.943054859449591021e+01,3.645607388676592109e+01,3.425146560228600379e+01,3.259462631393937926e+01,3.147792241662792279e+01,3.099764142920318832e+01,3.118385512932452031e+01,3.185844606470194407e+01,3.271635918311807956e+01,3.345196112893898288e+01,3.384896642438399539e+01,3.384780981755093165e+01,3.350632165009241703e+01,3.293062059894091220e+01,3.224533105035775549e+01,3.157305332864642722e+01,3.102453253807164302e+01,3.069403213552710952e+01,3.063678009729104801e+01,3.085682454727914248e+01,3.130674460533627013e+01,3.190442118631575497e+01,3.255038610257515330e+01,3.315037589722074074e+01,3.362892197439589381e+01,3.394294072956944319e+01,3.408693828028439299e+01,3.409619113494880338e+01,3.404356552404494352e+01,3.402621642154917936e+01,3.413088933994035301e+01,3.439922212520836098e+01,3.478668541428069005e+01,3.516547415210513350e+01,3.538551860209322797e+01,3.534532651464468245e+01,3.504952431709170213e+01,3.463545907085917719e+01,3.430293460635679992e+01,3.426736894624045959e+01,3.475863769857918584e+01,3.591721076324711248e+01,3.774080384174897063e+01,3.997609112247559437e+01,4.200911678327229026e+01
4.317815713977933001e+01,4.311830273616890707e+01,4.250848178344237027e+01,4.426160859064055586e+01,5.218118472825408816e+01,6.748222567440383557e+01,8.869439499257276793e+01,1.156953815101656602e+02,1.512205603873498774e+02,1.929538264409393378e+02,2.233002982231343765e+02,2.190237444579255737e+02,1.788027418385512988e+02,1.291091292564832145e+02,9.573523908877523070e+01,8.174897096009705422e+01,7.699820839333703759e+01,7.476884872262979798e+01,7.383488870494052492e+01,7.392452573450204056e+01,7.374814319246165439e+01,7.113132023268208570e+01,6.508342310265453534e+01,5.734485593441358731e+01,5.049687602762248417e+01,4.585281044121148852e+01,4.352774155506922682e+01,4.295059474537640654e+01,4.318365102223633301e+01,4.335396137840319852e+01,4.297488348887048915e+01,4.202386352039369655e+01,4.074751896495027381e+01,3.942652938575105281e+01,3.826520937985463178e+01,3.734180339951694094e+01,3.664639354114459024e+01,3.615425733368106620e+01,3.584628184921021443e+01,3.571052512218076913e+01,3.573163319688396200e+01,3.587386692217850026e+01,3.608610427604349979e+01,3.631534375035435147e+01,3.651711381238023080e+01,3.666275952783227154e+01,3.674068591320912702e+01,3.675158693261064258e+01,3.670217090566850970e+01,3.659984011611425103e+01,3.644878726371769773e+01,3.624820272369569807e+01,3.599395162662009540e+01,3.568132079964621539e+01
3.530744764086223597e+01,3.487314177505130885e+01,3.438418623637868166e+01,3.385156878975836037e+01,3.328887956547868754e+01,3.271115445236934249e+01,3.213458594609304697e+01,3.157247502522990246e+01,3.103725521323520908e+01,3.053673360623206889e+01,3.007582578326095302e+01,2.965742326140448171e+01,2.928268264749571870e+01,2.895362800349249710e+01,2.867170508793613948e+01,2.843893796278447184e+01,2.825532662803751194e+01,2.812058193198698319e+01,2.803296896438331132e+01,2.798901790472734419e+01,2.798381317397861423e+01,2.801070428284706537e+01,2.806101668008481553e+01,2.812636496615223791e+01,2.819894204492624112e+01,2.827209742711675844e+01,2.834062638197507766e+01,2.840105908900202891e+01,2.845108233453152025e+01,2.848925036002222555e+01,2.851585231718241431e+01,2.853146650942861129e+01,2.853811699871865670e+01,2.853638208846908242e+01,2.852799668892945917e+01,2.851440655864109530e+01,2.849705745614532759e+01,2.847739513998344663e+01,2.845686536869677496e+01,2.843749220424316348e+01,2.841956479833086036e+01,2.840481806120944697e+01,2.839383029629545874e+01,2.838746895871367215e+01,2.838602320017235670e+01,2.839064962750456189e+01,2.840105908900202891e+01,2.841782988808128252e+01,2.844125117645057443e+01,2.847103380240166359e+01,2.850746691764279106e+01,2.855083967388222987e+01,2.860057376770345527e+01,2.865724750252298847e+01
2.872057172663257063e+01,2.879025728832394293e+01,2.886659333930535354e+01,2.894986903128507905e+01,2.904037351597137828e+01,2.913781764165599242e+01,2.924306886346369794e+01,2.935641633310276433e+01,2.947843835398972701e+01,2.960971322954110008e+01,2.975053011146514947e+01,2.990175645488666234e+01,3.006368141151391171e+01,3.023717243647166697e+01,3.042251868146820826e+01,3.062000929821179795e+01,3.083080089353547848e+01,3.105460431573098745e+01,3.129199786821485674e+01,3.154298155098708634e+01,3.180784451575593152e+01,3.208600845910487465e+01,3.237776253274218163e+01,3.268281758495957945e+01,3.300059531234053622e+01,3.333022825976028258e+01,3.367171642721881142e+01,3.402361405617480727e+01,3.438534284321173828e+01,3.475603533320482086e+01,3.513453491932099837e+01,3.551968499472723551e+01,3.591056027395706707e+01,3.630620655637324035e+01,3.670543831997187567e+01,3.710724353377405293e+01,3.751058125163001478e+01,3.791435269704837907e+01,3.831760366939187179e+01,3.871921515154951265e+01,3.911814908888863584e+01,3.951330381340076059e+01,3.990365861955572768e+01,4.028820147637460281e+01,4.066606492873260947e+01,4.103635260633411974e+01,4.139822596922518727e+01,4.175090430779348338e+01,4.209354908208506885e+01,4.242578439487918018e+01,4.274645363934276787e+01,4.305526766376758729e+01,4.335193731644536541e+01,4.363530599054303849e+01
4.390566283776887957e+01,4.416242955470637099e+01,4.440531698964723262e+01,4.463432514259147865e+01,4.484916486183083606e+01,4.504983614736531905e+01,4.523547154407012272e+01,4.540578190023698824e+01,4.555961060903287319e+01,4.569637936704123859e+01,4.581406411230425135e+01,4.591150823798886194e+01,4.598668768213722302e+01,4.603728923108324267e+01,4.606186712628559121e+01,4.605781900236991078e+01,4.602340994908661997e+01,4.595632675276961976e+01,4.585599111000237826e+01,4.572124641395184597e+01,4.555209266461802997e+01,4.534939731712571387e+01,4.511547358514099670e+01,4.485234553062173291e+01,4.456463958090010635e+01,4.425640385989181880e+01,4.393284309834559309e+01,4.359974033042669816e+01,4.326316774200864046e+01,4.293035412579799726e+01,4.260823912279308701e+01,4.230462982911701175e+01,4.202733334089285933e+01,4.178473505766025653e+01,4.158377462041751471e+01,4.143101577294220306e+01,4.132926328680447625e+01,4.127770753722119679e+01,3.735660796698000752e+01,3.781731338375534079e+01,3.798103108097382119e+01,3.784168887276190674e+01,3.751754980779915627e+01,3.717157978886255876e+01,3.693832110580684258e+01,3.685588395378108117e+01,3.686632233044937124e+01,3.688323770538275426e+01,3.683911315470183467e+01,3.671417070156142159e+01,3.653582192790484129e+01,3.633954574833595785e+01,3.614610325550805214e+01,3.596003413124086023e+01
3.577214335121160360e+01,3.557375636417240372e+01,3.536469967909830103e+01,3.514985995985893652e+01,3.493617684745262153e+01,3.473058998287768162e+01,3.453714749004977591e+01,3.435874088605154242e+01,3.419623762600778605e+01,3.404905940650193941e+01,3.391720622753404513e+01,3.379952148227103237e+01,3.369629432242116707e+01,3.360665729285965142e+01,3.352887548333692536e+01,3.346179228701992514e+01,3.340396194536733532e+01,3.335393869983784754e+01,3.331143339872318876e+01,3.327528943519033078e+01,3.324463935411445448e+01,3.321919400378732234e+01,3.319837508079239541e+01,3.318131513000486876e+01,3.316801415142477794e+01,3.315847214505210871e+01,3.315268911088683979e+01,3.315037589722074074e+01,3.315182165576205620e+01,3.315731553821905209e+01,3.316743584800825317e+01,3.318189343342140063e+01,3.320155574958327804e+01,3.322613364478562659e+01,3.325620542244497102e+01,3.329119277914478658e+01,3.333138486659333921e+01,3.337649253308235586e+01,3.342622662690357771e+01,3.348000884464048710e+01,3.353783918629307692e+01,3.359885019673655648e+01,3.366275272426265985e+01,3.372867931374661055e+01,3.379605166177187670e+01,3.386429146492192643e+01,3.393224211636371734e+01,3.399961446438898349e+01,3.406525190216466825e+01,3.412886527798251279e+01,3.418987628842599946e+01,3.424770663007858218e+01,3.430177799952374329e+01,3.435180124505323818e+01
3.439748721495877959e+01,3.443854675753211581e+01,3.447497987277324683e+01,3.450649740897390672e+01,3.453309936613409548e+01,3.455478574425382021e+01,3.457155654333306671e+01,3.458341176337184919e+01,3.459064055607842647e+01,3.459324292145278434e+01,3.459150801120321717e+01,3.458572497703794824e+01,3.457618297066527191e+01,3.456317114379343991e+01,3.454697864813072528e+01,3.452760548367710669e+01,3.450562995384912313e+01,3.448105205864676748e+01,3.445445010148657872e+01,3.442582408236854974e+01,3.439575230470920530e+01,3.436423476850854541e+01,3.433156062547482890e+01,3.429830817902459472e+01,3.426418827744956275e+01,3.422977922416627905e+01,3.419508101917472231e+01,3.416067196589143151e+01,3.412626291260814781e+01,3.409243216274138888e+01,3.405917971629114049e+01,3.402621642154917936e+01,3.399440973364024643e+01,3.396347050085611130e+01,3.393368787490503280e+01,3.390477270407873078e+01,3.387730329179376554e+01,3.385099048634182850e+01,3.382612343943122113e+01,3.380241299935366328e+01,3.378014831781741378e+01,3.375932939482247974e+01,3.373966707866060233e+01,3.372145052104004037e+01,3.370439057025252083e+01,3.368848722629806502e+01,3.367374048917665874e+01,3.365986120718003605e+01,3.364713853201646998e+01,3.363499416026941446e+01,3.362400639535542979e+01,3.361359693385796277e+01,3.360347662406876168e+01,3.359422376940435129e+01
3.358526006644819262e+01,3.357658551520030699e+01,3.356820011566068018e+01,3.355981471612106048e+01,3.355200761999795844e+01,3.354391137216659757e+01,3.353581512433523670e+01,3.352800802821213466e+01,3.351991178038077379e+01,3.351181553254940582e+01,3.350343013300977901e+01,3.349504473347015931e+01,3.348665933393053962e+01,3.347827393439090571e+01,3.346959938314302718e+01,3.346092483189513445e+01,3.345225028064724881e+01,3.344328657769109014e+01,3.343432287473494569e+01,3.342564832348705295e+01,3.341697377223916732e+01,3.340829922099127458e+01,3.339962466974338895e+01,3.339123927020376215e+01,3.338314302237240838e+01,3.337533592624930634e+01,3.336781798183447023e+01,3.336058918912789295e+01,3.335393869983784754e+01,3.334757736225606095e+01,3.334208347979906506e+01,3.333687874905033510e+01,3.333225232171812991e+01,3.332820419780244947e+01,3.332502352901155263e+01,3.332242116363718054e+01,3.332068625338761336e+01,3.331981879826282267e+01,3.331952964655455673e+01,3.332010794997108150e+01,3.332155370851240406e+01,3.332357777047024427e+01,3.332675843926113401e+01,3.333051741146854852e+01,3.333514383880075371e+01,3.334092687296601554e+01,3.334728821054780212e+01,3.335451700325437230e+01,3.336232409937746723e+01,3.337128780233362590e+01,3.338082980870630223e+01,3.339123927020376215e+01,3.340222703511775393e+01,3.341408225515654351e+01
3.342680493032011668e+01,3.344010590890020040e+01,3.345398519089682310e+01,3.346873192801822938e+01,3.348405696855616753e+01,3.349996031251063044e+01,3.351644195988161812e+01,3.353350191066913055e+01,3.355142931658143368e+01,3.356964587420199564e+01,3.358844073523908946e+01,3.360781389969270094e+01,3.362747621585457836e+01,3.364771683543298764e+01,3.366853575842791457e+01,3.368935468142285572e+01,3.371104105954257335e+01,3.373272743766229098e+01,3.375499211919854048e+01,3.377725680073478287e+01,3.380009978568755713e+01,3.382294277064032428e+01,3.384607490730136448e+01,3.386920704396239756e+01,3.389233918062343065e+01,3.391576046899272967e+01,3.393889260565376986e+01,3.396202474231479584e+01,3.398515687897583604e+01,3.400828901563686912e+01,3.403084284888138455e+01,3.405339668212589288e+01,3.407566136366213527e+01,3.409734774178185290e+01,3.411874496819331171e+01,3.413985304289650458e+01,3.416038281418317268e+01,3.418033428205331603e+01,3.419970744650693462e+01,3.421850230754402844e+01,3.423671886516459040e+01,3.425406796766036166e+01,3.427083876673961527e+01,3.428674211069407818e+01,3.430177799952374329e+01,3.431594643322863192e+01,3.432953656351699578e+01,3.434197008697230302e+01,3.435382530701107129e+01,3.436452392021681135e+01,3.437464423000601244e+01,3.438360793296215689e+01,3.439199333250177659e+01,3.439951127691662691e+01
3.440645091791493115e+01,3.441252310378845181e+01,3.441830613795371363e+01,3.442322171699418476e+01,3.442784814432638996e+01,3.443218541995033632e+01,3.443594439215775083e+01,3.443970336436516533e+01,3.444288403315605507e+01,3.444635385365521785e+01,3.444924537073784165e+01,3.445242603952873850e+01,3.445560670831962824e+01,3.445849822540225915e+01,3.446167889419314889e+01,3.446485956298404574e+01,3.446832938348320141e+01,3.447151005227409115e+01,3.447497987277324683e+01,3.447873884498066843e+01,3.448220866547982411e+01,3.448625678939550454e+01,3.449001576160291904e+01,3.449406388551860658e+01,3.449840116114254585e+01,3.450273843676648511e+01,3.450707571239043858e+01,3.451199129143090971e+01,3.451690687047137374e+01,3.452182244951184487e+01,3.452731633196884076e+01,3.453252106271757071e+01,3.453801494517456661e+01,3.454379797933982843e+01,3.454958101350508315e+01,3.455536404767034497e+01,3.456114708183559969e+01,3.456693011600086152e+01,3.457300230187438217e+01,3.457907448774789572e+01,3.458543582532968230e+01,3.459179716291146889e+01,3.459815850049325547e+01,3.460509814149156682e+01,3.461232693419814410e+01,3.462042318202949787e+01,3.462909773327739060e+01,3.463892889135833997e+01,3.465049495968884941e+01,3.466379593826894734e+01,3.467912097880687838e+01,3.469704838471918151e+01,3.471815645942237438e+01,3.474244520291646410e+01
3.477049291861796831e+01,3.480287790994341179e+01,3.483960017689280164e+01,3.488094887117440379e+01,3.492779144791300183e+01,3.497983875540032983e+01,3.503737994534466083e+01,3.510041501774598061e+01,3.516894397260429628e+01,3.524238850650307597e+01,3.532103777115059984e+01,3.540373515971379703e+01,3.549048067219267466e+01,3.558069600517071507e+01,3.567351370352312045e+01,3.576818197280839939e+01,3.586438274614747712e+01,3.596124856841556294e+01,3.605808547551281151e+01,3.615419950333942012e+01,3.624898343330800543e+01,3.634188787717288704e+01,3.643250802254249265e+01,3.652061254805020241e+01,3.660605687784190820e+01,3.668889884225924192e+01,3.676928301715633296e+01,3.684749855424145437e+01,3.692389243556452527e+01,3.699875381283380449e+01,3.707234292258671360e+01,3.714474651033575725e+01,3.721602240642256731e+01,3.728614169567633496e+01,3.735498871741373961e+01,3.742238998060982880e+01,3.748799850321469052e+01,3.755132272732426912e+01,3.761172651918040089e+01,3.766851591468324045e+01,3.772096803456213365e+01,3.776844674505890964e+01,3.781037374275702945e+01,3.784631530009411904e+01,3.787606901087437450e+01,3.789972162061027916e+01,3.791785143271836489e+01,3.793149939334836773e+01,3.794202451552914113e+01,3.795116170951025225e+01,3.796084829173706510e+01,3.797348422138815494e+01,3.799222125208358847e+01,3.802099184705575396e+01
3.806422002744106692e+01,3.812630089920511267e+01,3.821084885870119052e+01,3.832035061062037329e+01,3.845567650160450768e+01,3.861557826372903435e+01,3.879575071720962853e+01,3.898834888704940482e+01,3.918222510743969877e+01,3.936418827744957127e+01,3.952148680674459769e+01,3.964324859109412102e+01,3.972108823095850738e+01,3.974962750456406013e+01,3.972744956854029397e+01,3.965773509167809863e+01,3.954904296454206758e+01,3.941386454092913283e+01,3.926578995112769377e+01,3.911852498610937801e+01,3.898701878919139574e+01,3.888795830545759458e+01,3.883935190329859211e+01,3.885801953758405602e+01,3.895616630191974394e+01,3.914359443921576798e+01,3.943219675923300827e+01,3.983232489312725733e+01,4.034100057830342223e+01,4.091999795892911607e+01,4.148060529090929549e+01,4.190126319609021266e+01,4.206434475955050800e+01,4.191716654004467557e+01,4.152767918901450628e+01,4.106769665150982007e+01,4.076900293687420884e+01,4.082885734048463888e+01,4.127143294515187932e+01,4.193480479424871277e+01,4.252265021714725890e+01,4.274674279105103381e+01,4.262211840478971681e+01,4.260823912279308701e+01,4.358730680697139093e+01,4.671361507671024782e+01,5.294252117611039665e+01,6.262274206533695065e+01,7.529510483166833978e+01,8.958787377110523664e+01,1.035394436947918564e+02,1.150737053374003409e+02,1.223863520393699815e+02,1.244161970313758019e+02
1.210389050788647012e+02,1.130149451745682541e+02,1.018479062014536822e+02,8.939125060948643409e+01,7.735675651158307176e+01,6.702247445826576211e+01,5.894502148794066443e+01,5.299427933188945872e+01,4.866654571431811149e+01,4.534939731712571387e+01,4.262674483212192200e+01,4.041432945151889555e+01,3.881086467700052367e+01,3.795064123643538778e+01,3.786013675174908144e+01,3.836747366451598396e+01,3.919650920182788667e+01,4.007185816825227676e+01,4.077429441313542213e+01,4.118873555658868213e+01,4.128158217011191766e+01,4.106318588486092835e+01,4.058998911428863465e+01,3.995373969542686154e+01,3.926298517955753908e+01,3.862578474072729762e+01,3.812126965948133517e+01,3.778452358003832501e+01,3.761418430870063645e+01,3.758445951309120403e+01,3.765509927541983615e+01,3.778038871061016835e+01,3.791675265622696855e+01,3.802937724659538077e+01,3.810134710678202197e+01,3.813778022202315299e+01,3.816224245654219516e+01,3.821934991892412370e+01,3.836895122974520689e+01,3.866132958192064706e+01,3.910828901563687054e+01,3.963957636439918275e+01,4.008995906518953234e+01,4.026897288777512074e+01,4.004294299742598184e+01,3.942248126183537238e+01,3.862073412783907145e+01,3.796431811223621366e+01,3.780320278039211246e+01,3.844527860617537129e+01,3.999899193777001472e+01,4.232776196577803773e+01,4.499634308133666849e+01,4.724478676478926076e+01
4.836871945480729096e+01,4.805267663767590136e+01,4.711553595119572435e+01,4.866885892798421764e+01,5.656906190114413135e+01,7.197853473789248824e+01,9.363021465262106346e+01,1.216750388370431608e+02,1.585939289480547245e+02,2.015589812788442714e+02,2.326659220537708563e+02,2.284847883522888310e+02,1.875004252231003647e+02,1.362482849334951140e+02,1.011076778283005808e+02,8.606889748154532072e+01,8.143090408100782440e+01,8.006032498384151097e+01,8.012104684257673171e+01,8.110127113358808515e+01,8.160439510596559387e+01,7.921021896154849173e+01,7.274767828187187035e+01,6.405288641440542108e+01,5.600579437344792666e+01,5.021610971889918318e+01,4.696315300094115486e+01,4.572066811053532831e+01,4.551594870108517199e+01,4.539681819728084378e+01,4.481677987050539258e+01,4.373072605426980886e+01,4.238501400401410280e+01,4.106145097461134696e+01,3.995026987492771298e+01,3.909741691140618514e+01,3.845777285148940905e+01,3.797926725555341676e+01,3.762838165757634101e+01,3.739335914910022751e+01,3.726639263400197422e+01,3.722244157434600709e+01,3.722550658245359756e+01,3.724181473879961857e+01,3.724872546462710687e+01,3.723953044030434967e+01,3.721926090555511024e+01,3.719728537572712668e+01,3.718155552279763043e+01,3.717363276599122202e+01,3.716556543333068419e+01,3.713959960992867337e+01,3.707124414609531726e+01,3.693476453979521068e+01
3.670867681910442570e+01,3.638043179988433451e+01,3.594823674154373094e+01,3.542108426220956829e+01,3.481762464706482518e+01,3.416298517955754477e+01,3.348550272709748299e+01,3.281380330880268303e+01,3.217275397158375227e+01,3.158143872818605402e+01,3.105229110206488485e+01,3.059167243080202425e+01,3.020073932123053950e+01,2.987688940797605142e+01,2.961578541541462073e+01,2.941309006792230107e+01,2.926302033133383773e+01,2.916066062660875957e+01,2.910109537470659546e+01,2.908027645171166498e+01,2.909299912687523459e+01,2.913550442798988271e+01,2.920172016918209579e+01,2.928586331628660844e+01,2.938215083513816595e+01,2.948479969157151359e+01,2.958860515483790721e+01,2.968951910102166991e+01,2.978378255791538365e+01,2.986879316014469055e+01,2.994310514916826449e+01,3.000585106986131834e+01,3.005818752905691227e+01,3.010213858871287584e+01,3.014001746249532232e+01,3.017384821236208836e+01,3.020681150710406015e+01,3.024122056038734740e+01,3.027996688929458458e+01,3.032478540407533885e+01,3.037596525643787615e+01,3.043321729467393766e+01,3.049567406365873623e+01,3.056246810826747051e+01,3.063273197337536402e+01,3.070473074873283181e+01,3.077788613092335979e+01,3.085104151311388065e+01,3.092419689530440152e+01,3.099793058091145426e+01,3.107282087335155296e+01,3.114973522774949188e+01,3.122954109923006172e+01,3.131223848779326246e+01
3.139898400027214365e+01,3.149006678837497120e+01,3.158548685210173801e+01,3.168553334316071357e+01,3.179049541326015671e+01,3.190008391069181215e+01,3.201487713887220110e+01,3.213574255292610360e+01,3.226296930456179268e+01,3.239713569719579311e+01,3.253910918595289559e+01,3.268946807424961776e+01,3.284879066550249860e+01,3.301794441483631459e+01,3.319721847395933167e+01,3.338661284287155695e+01,3.358670582498950807e+01,3.379749742031319215e+01,3.401869847713433614e+01,3.425030899545294716e+01,3.449146152014423450e+01,3.474215605120819816e+01,3.500152513352005457e+01,3.526927961537153067e+01,3.554397373822131811e+01,3.582526052001949779e+01,3.611212792978716379e+01,3.640367959722868108e+01,3.669890349136513663e+01,3.699690324190091673e+01,3.729669573302793140e+01,3.759735567927972966e+01,3.789798671036069777e+01,3.819777920148771244e+01,3.849593509394595969e+01,3.879177777273809369e+01,3.908466532107178892e+01,3.937401943553050643e+01,3.965935434124437364e+01,3.994017848030933493e+01,4.021611595550464813e+01,4.048676195443876225e+01,4.075179841023257410e+01,4.101087834083615746e+01,4.126365476419961453e+01,4.150986744378550242e+01,4.174916939754390910e+01,4.198106906757078605e+01,4.220545079318281978e+01,4.242202542267175858e+01,4.263021465262107768e+01,4.282944017961423810e+01,4.301970200365124697e+01,4.320042182131557951e+01
4.337073217748245213e+01,4.353092222386011656e+01,4.367983535361553038e+01,4.381718241504042766e+01,4.394267425642653535e+01,4.405544342264907698e+01,4.415548991370805965e+01,4.424223542618694438e+01,4.431481250496093338e+01,4.437351030173830679e+01,4.441717220968600799e+01,4.444550907709578524e+01,4.445852090396761014e+01,4.445534023517672040e+01,4.443596707072310181e+01,4.439982310719022962e+01,4.434633004116159327e+01,4.427577702434543738e+01,4.418729660161697836e+01,4.408117792468448215e+01,4.395684269013142398e+01,4.381458004966605557e+01,4.365410085158012521e+01,4.347569424758189882e+01,4.327907108596310337e+01,4.306452051843199769e+01,4.283262084840512784e+01,4.258366122759073846e+01,4.231764165598884375e+01,4.203542958872421309e+01,4.173731417750513373e+01,4.142424962296884416e+01,4.109678531336106744e+01,4.075573087346494816e+01,4.040192484323441136e+01,4.003629250813592932e+01,3.965975915363594595e+01,3.927336572588418306e+01,3.887810979827415991e+01,3.847511038791686389e+01,3.806546337978659977e+01,3.765035718740432458e+01,3.723097154973976330e+01,3.680852090396761156e+01,3.638424860243340930e+01,3.595939799748268229e+01,3.553529918697343248e+01,3.511313769290954667e+01,3.469444601934482364e+01,3.428009162140403276e+01,3.387152025762849661e+01,3.347017768655954484e+01,3.307693136332195394e+01,3.269293789474877343e+01
3.231935388767306705e+01,3.195733594892787366e+01,3.160746238192971802e+01,3.127117894521992625e+01,3.094848563879849124e+01,3.064082822120672489e+01,3.034849584415290025e+01,3.007206681105353141e+01,2.981183027361689142e+01,2.956865368696776386e+01,2.934224789939788280e+01,2.913319121432378012e+01,2.894148363174545580e+01,2.876712515166290629e+01,2.861011577407613160e+01,2.847045549898513173e+01,2.834785517468165139e+01,2.824231480116567639e+01,2.815325607502069616e+01,2.808038984453843767e+01,2.802342695801063854e+01,2.798207826372903639e+01,2.795518715486058525e+01,2.794275363140527801e+01,2.794362108653006871e+01,2.795750036852668785e+01,2.798352402227035185e+01,2.802082459263626646e+01,2.806882377620791402e+01,2.812636496615223791e+01,2.819286985905271692e+01,2.826747099978455324e+01,2.834901178151470447e+01,2.843691390082663162e+01,2.853030990259556177e+01,2.862833233169669711e+01,2.873011373300524696e+01,2.883478665139643127e+01,2.894206193516197700e+01,2.905078297746884530e+01,2.916066062660875957e+01,2.927053827574867739e+01,2.938041592488859521e+01,2.948942611890371879e+01,2.959727970608579284e+01,2.970310923131002667e+01,2.980662554286815791e+01,2.990782864076018654e+01,3.000585106986131834e+01,3.010040367846330156e+01,3.019148646656612911e+01,3.027823197904500319e+01,3.036121851931646276e+01,3.043957863225572069e+01
3.051331231786277343e+01,3.058270872784587624e+01,3.064718955878851148e+01,3.070675481069067203e+01,3.076169363526063094e+01,3.081200603249838466e+01,3.085740285069566724e+01,3.089846239326899990e+01,3.093518466021839330e+01,3.096756965154384389e+01,3.099561736724534455e+01,3.102019526244770020e+01,3.104072503373436476e+01,3.105807413623014313e+01,3.107224256993502465e+01,3.108323033484901643e+01,3.109132658268037730e+01,3.109710961684563557e+01,3.110029028563652886e+01,3.110144689246957839e+01,3.110086858905305718e+01,3.109826622367869220e+01,3.109392894805474583e+01,3.108843506559774639e+01,3.108178457630770453e+01,3.107368832847634366e+01,3.106501377722845447e+01,3.105576092256404053e+01,3.104564061277483589e+01,3.103552030298563125e+01,3.102482168977990540e+01,3.101412307657417600e+01,3.100342446336844660e+01,3.099272585016271719e+01,3.098231638866525017e+01,3.097219607887605264e+01,3.096236492079510683e+01,3.095311206613069643e+01,3.094414836317454487e+01,3.093547381192665569e+01,3.092737756409529837e+01,3.091985961968045871e+01,3.091263082697388853e+01,3.090540203426731480e+01,3.089875154497725873e+01,3.089239020739548280e+01,3.088573971810543028e+01,3.087937838052364725e+01,3.087301704294186422e+01,3.086665570536008119e+01,3.086000521607003222e+01,3.085306557507172442e+01,3.084583678236514359e+01,3.083831883795031104e+01
