5.130870907967881323e+01,5.438529956763434825e+01,5.707295861642990076e+01,5.925072266831377732e+01,6.082954910438542839e+01,6.175861642989500666e+01,6.202784434836318894e+01,6.166201358863497006e+01,6.071026559604693773e+01,5.924085237801111958e+01,5.733798641136504415e+01,5.509491043854232117e+01,5.260612723903644650e+01,4.996172946263126136e+01,4.724172946263125539e+01,4.451794935145151300e+01,4.185868313773934801e+01,3.932857072266831722e+01,3.698607782581841263e+01,3.488181593576281614e+01,3.305665225447807387e+01,3.154145768993206289e+01,3.035849289684990993e+01,2.951531809759110914e+01,2.900227300802965402e+01,2.879016676961087384e+01,2.883426806670784259e+01,2.907808523780111543e+01,2.946008647313156459e+01,2.991642989499691296e+01,3.038411365040148482e+01,3.080748610253243314e+01,3.114391599752934425e+01,3.136694255713403834e+01,3.146942557134033791e+01,3.146165534280420317e+01,3.136883261272390655e+01,3.122917850525015737e+01,3.109288449660284570e+01,3.101581222977146979e+01,3.105466337245213637e+01,3.126172946263125496e+01,3.167901173563928552e+01,3.232856084002471420e+01,3.320428659666460902e+01,3.425725756639901221e+01,3.538310067943175596e+01,3.643523162445955421e+01,3.725761581222977981e+01,3.772403953057443005e+01,3.778284126003706689e+01,3.747938233477455583e+01,3.693210623841878260e+01,3.631783817171093176e+01
3.583986411365040681e+01,3.564623841877702404e+01,3.580584311303274347e+01,3.630985793699815645e+01,3.711187152563311287e+01,3.835783817171093801e+01,4.071935762816553961e+01,4.547725756639901107e+01,5.399930821494749722e+01,6.709067325509575141e+01,8.513230389129091691e+01,1.083442865966646167e+02,1.357332921556516681e+02,1.637082149474984760e+02,1.873465101914762556e+02,2.040063001852995797e+02,2.148258184064237355e+02,2.226338480543545586e+02,2.292217418159357862e+02,2.336696726374305229e+02,2.330186534898085142e+02,2.254164298949969520e+02,2.119193329215565313e+02,1.947870290302655860e+02,1.754874613959234182e+02,1.551210623841877805e+02,1.352460778258184462e+02,1.172737492279184721e+02,1.016849907350216142e+02,8.825089561457689058e+01,7.657875231624460355e+01,6.636615194564546982e+01,5.747932056825200675e+01,4.992959851760345913e+01,4.378964793082150209e+01,3.906177887584929209e+01,3.562040765904880146e+01,3.325972822730081191e+01,3.172584311303274163e+01,3.075519456454601652e+01,3.011341568869672969e+01,2.959953057442866253e+01,2.906422483014206293e+01,2.842685608400246977e+01,2.766474366893143966e+01,2.680014823965410997e+01,2.587465101914762400e+01,2.493004323656578691e+01,2.400517603458925819e+01,2.313953057442866523e+01,2.237930821494749978e+01,2.177491043854231023e+01,2.136959851760346041e+01,2.119235330450895916e+01
2.124947498455836836e+01,2.152290302655960730e+01,2.197315626930204147e+01,2.254458307597282385e+01,2.316977146386658859e+01,2.377836936380482058e+01,2.430527486102532464e+01,2.469798641136504003e+01,2.492332303891291545e+01,2.497246448424953869e+01,2.485969116738728246e+01,2.462175416924027616e+01,2.431115503397159117e+01,2.398543545398393917e+01,2.370108709079678988e+01,2.350578134651019724e+01,2.343311920938851500e+01,2.350095120444719399e+01,2.370843730697961860e+01,2.403793699814700702e+01,2.445962940086473481e+01,2.493886349598518137e+01,2.544119827053737382e+01,2.593786287831995097e+01,2.640638665843113486e+01,2.683269919703520756e+01,2.721239036442248960e+01,2.754987029030265688e+01,2.785752933909821039e+01,2.815069796170476124e+01,2.844407659048795978e+01,2.874984558369364152e+01,2.907640518838789490e+01,2.942921556516368398e+01,2.980953675108091971e+01,3.021358863495985148e+01,3.063318097591105627e+01,3.105760345892526786e+01,3.147614576899320937e+01,3.188061766522545426e+01,3.226450895614577519e+01,3.262361951822112616e+01,3.295647930821494498e+01,3.326581840642372612e+01,3.355877702285361863e+01,3.384585546633724817e+01,3.413860407659048946e+01,3.444794317479926349e+01,3.478332303891291133e+01,3.515251389746757837e+01,3.556118591723286215e+01,3.601101914762199385e+01,3.649823347745522284e+01,3.701442865966646423e+01
3.754742433600988960e+01,3.808462013588635386e+01,3.861278567016677243e+01,3.911890055589870485e+01,3.959107844348363869e+01,4.001963804817788173e+01,4.039918221124150932e+01,4.072926991970352617e+01,4.101332427424336657e+01,4.125687872760963160e+01,4.146636009882644203e+01,4.164859295861643318e+01,4.181086473131563253e+01,4.196007411982704838e+01,4.210121927115504548e+01,4.223667325509573800e+01,4.236654107473749775e+01,4.248996170475602696e+01,4.260636812847437227e+01,4.271599135268684222e+01,4.281941939468808300e+01,4.291774428659667251e+01,4.301289808523780067e+01,4.310796788140827829e+01,4.320717479925880156e+01,4.331494996911673923e+01,4.343515750463248537e+01,4.357019147621988964e+01,4.372160592958617542e+01,4.389003088326127511e+01,4.407546633724521001e+01,4.427686226065473107e+01,4.449232859789993455e+01,4.471955528103767818e+01,4.495581222977146751e+01,4.519836936380482229e+01,4.544470660901792058e+01,4.569251389746757752e+01,4.593864113650401038e+01,4.618098826436071391e+01,4.641661519456454243e+01,4.664300185299568113e+01,4.685783817171093091e+01,4.705881408276714239e+01,4.724382952439778194e+01,4.741099444101297422e+01,4.755841877702285103e+01,4.768463248919086084e+01,4.778858554663372615e+01,4.786901791229153957e+01,4.792487955528104493e+01,4.795575046324891844e+01,4.796121062384187894e+01,4.794084002470660977e+01
4.789463866584311802e+01,4.782302655960469906e+01,4.772621371216801123e+01,4.760504014823965946e+01,4.745992588017294622e+01,4.729150092649783943e+01,4.710039530574428568e+01,4.688744904261890412e+01,4.665287214329833176e+01,4.639750463248919488e+01,4.612113650401482801e+01,4.582460778258184320e+01,4.550749845583694508e+01,4.516980852378011235e+01,4.481132798023471508e+01,4.443142680667078537e+01,4.402926497838172537e+01,4.360379246448425050e+01,4.315303520691785621e+01,4.267548116121063373e+01,4.216907226683137822e+01,4.163170846201359154e+01,4.106135268684373330e+01,4.045596788140827726e+01,3.981374799258802000e+01,3.913318097591105982e+01,3.841264978381717299e+01,3.765137739345275492e+01,3.684873378628783769e+01,3.600408894379246760e+01,3.511807288449660547e+01,3.419110562075356086e+01,3.322549722050649024e+01,3.222313773934527603e+01,3.118780728844966532e+01,3.012370599135268989e+01,2.903566399011735655e+01,2.792956145768993892e+01,2.681148857319333345e+01,2.568858554663373184e+01,2.456778258184064612e+01,2.345642989499691211e+01,2.236187770228536209e+01,2.129231624459543326e+01,2.025509573810995079e+01,1.925756639901173983e+01,1.831043854231007018e+01,1.741581222977146481e+01,1.658418777022853874e+01,1.582186534898085384e+01,1.513094502779493844e+01,1.451772699197035266e+01,1.398431130327362837e+01,1.353699814700432746e+01
1.317158739962940572e+01,1.289437924644842681e+01,1.270327362569487484e+01,1.259617047560222680e+01,1.257306979617047915e+01,1.263187152563310711e+01,1.277047560222359834e+01,1.298258184064237319e+01,1.326609017912291932e+01,1.361260037059913763e+01,1.402001235330451401e+01,1.447782581840642813e+01,1.498394070413836054e+01,1.553205682520074404e+01,1.611587399629400963e+01,1.673119209388511663e+01,1.737171093267449606e+01,1.803323038912909837e+01,1.871155033971587756e+01,1.940247066090179473e+01,2.009969116738727735e+01,2.080300185299567772e+01,2.150673255095738767e+01,2.220773316862261026e+01,2.290390364422483671e+01,2.359251389746757255e+01,2.427251389746757582e+01,2.494222359481161533e+01,2.560101297096973383e+01,2.624825200741198472e+01,2.688352069178505488e+01,2.750639901173564184e+01,2.811709697344039682e+01,2.871582458307597463e+01,2.930279184681903004e+01,2.987799876466954885e+01,3.044207535515750607e+01,3.099607164916615432e+01,3.154019765287214483e+01,3.207508338480544552e+01,3.260072884496603507e+01,3.311671402100061812e+01,3.362261890055590641e+01,3.411718344657196411e+01,3.459977764051883753e+01,3.506872143298333100e+01,3.552212476837554078e+01,3.595872760963558079e+01,3.637684990735021273e+01,3.677628165534280669e+01,3.715660284126003887e+01,3.751781346510192350e+01,3.785970352069178801e+01,3.818269302038295621e+01
3.848699197035207220e+01,3.877365040148239927e+01,3.904224830142063496e+01,3.929205064854848928e+01,3.952150339715874594e+01,3.972896849907350969e+01,3.991299691167387209e+01,4.007218159357628195e+01,4.020534651019148242e+01,4.031158863495986111e+01,4.039099197035207567e+01,4.044508956145769218e+01,4.047686349598517808e+01,4.048988387893761853e+01,4.048795182211242150e+01,4.047493143915998104e+01,4.045460284126004069e+01,4.043059913526868598e+01,4.040594441012971316e+01,4.038250772081531892e+01,4.036100308832613592e+01,4.034151451513280762e+01,4.032387399629401159e+01,4.030797652872143999e+01,4.029380111179741419e+01,4.028128474366893386e+01,4.027044842495367760e+01,4.026177516985794114e+01,4.025621000617665857e+01,4.025492896849907254e+01,4.025904508956146088e+01,4.026941939468808584e+01,4.028657689932057195e+01,4.031104261890055795e+01,4.034321556516368190e+01,4.038336874613959537e+01,4.043158616429895602e+01,4.048782581840642791e+01,4.055198270537368899e+01,4.062403582458307483e+01,4.070402717726992137e+01,4.079197776405188591e+01,4.088788758492896847e+01,4.099169363804818289e+01,4.110326361951823060e+01,4.122241902408894987e+01,4.134895194564546728e+01,4.148266287831995669e+01,4.162337121680049989e+01,4.177090055589870587e+01,4.192494008647313564e+01,4.208506979617047961e+01,4.225072266831377021e+01,4.242133168622606831e+01
4.259628783199507041e+01,4.277481408276714347e+01,4.295592340951205301e+01,4.313839777640518491e+01,4.332116615194564702e+01,4.350361951822113582e+01,4.368548486720197843e+01,4.386735021618283525e+01,4.404921556516368497e+01,4.423192093885114673e+01,4.441609635577518134e+01,4.460321185917232611e+01,4.479410747374923574e+01,4.498899320568252591e+01,4.518702903026560591e+01,4.538611488573194208e+01,4.558352069178505417e+01,4.577609635577516656e+01,4.596069178505250363e+01,4.613394688079061723e+01,4.629229153798641505e+01,4.643362569487338476e+01,4.655731933292155844e+01,4.666547251389746975e+01,4.676081531809759184e+01,4.684712785670167534e+01,4.692861025324274493e+01,4.700925262507720959e+01,4.709325509573811530e+01,4.718376775787523059e+01,4.728268066707845207e+01,4.738873378628782973e+01,4.749982705373687963e+01,4.761197035206917860e+01,4.772180358245830689e+01,4.782533662754786974e+01,4.791941939468808442e+01,4.800069178505250278e+01,4.806726374305126370e+01,4.811892526250772306e+01,4.815714638665843239e+01,4.818423718344657658e+01,4.820292773316862167e+01,4.821552810376775966e+01,4.822413835701050289e+01,4.823085855466337080e+01,4.823715873996293624e+01,4.824387893761581836e+01,4.825059913526868627e+01,4.825626930203829801e+01,4.826025941939469277e+01,4.826151945645460728e+01,4.825920938851142949e+01,4.825290920321186405e+01
4.824219888820259428e+01,4.822665843113033191e+01,4.820607782581840439e+01,4.818108709079679386e+01,4.815168622606547189e+01,4.811829524397776936e+01,4.808091414453367207e+01,4.803954292773318002e+01,4.799397158739962777e+01,4.794441012970970206e+01,4.789043854231007202e+01,4.783226683137740309e+01,4.776947498455837149e+01,4.770206300185299853e+01,4.763003088326127710e+01,4.755337862878320010e+01,4.747210623841878174e+01,4.738663372452131739e+01,4.729717109326745828e+01,4.720392835083385563e+01,4.710732550957381193e+01,4.700778258184064384e+01,4.690550957381099551e+01,4.680113650401482772e+01,4.669487337862877752e+01,4.658693020382953165e+01,4.647751698579370583e+01,4.636663372452131426e+01,4.625407041383571283e+01,4.614024706609018267e+01,4.602516368128474511e+01,4.590819024088943934e+01,4.578953675108092369e+01,4.566836318715257192e+01,4.554466954910438403e+01,4.541845583693638133e+01,4.528930203829524714e+01,4.515783817171093517e+01,4.502385423100680129e+01,4.488798023471279208e+01,4.475126621371217084e+01,4.461497220506485917e+01,4.447993823347746201e+01,4.434637430512662348e+01,4.421407041383570657e+01,4.408260654725139460e+01,4.395135268684374097e+01,4.381904879555281696e+01,4.368464484249537350e+01,4.354667078443483774e+01,4.340491661519456557e+01,4.326036936380481279e+01,4.311557010500309417e+01,4.297404694255713764e+01
4.283964298949970129e+01,4.271628536133415821e+01,4.260792217418160277e+01,4.251812353304509173e+01,4.244930450895614626e+01,4.240184311303273290e+01,4.237387029030266206e+01,4.236194193946881370e+01,4.236206794317480018e+01,4.237004817788758970e+01,4.238174552192711531e+01,4.239323285978999678e+01,4.240127609635577244e+01,4.240398517603459538e+01,4.240123409512044361e+01,4.239413588634960206e+01,4.238418159357628667e+01,4.237271525633106961e+01,4.236095491043855077e+01,4.234997158739963652e+01,4.234066831377393925e+01,4.233336009882643935e+01,4.232758492896849845e+01,4.232227177269919594e+01,4.231624459542928207e+01,4.230855836936380854e+01,4.229862507720815046e+01,4.228602470660901957e+01,4.227035824583076362e+01,4.225145768993206019e+01,4.222940704138357404e+01,4.220473131562693681e+01,4.217808153180975950e+01,4.214998270537369507e+01,4.212072884496603820e+01,4.209057195799876894e+01,4.205965904879555950e+01,4.202813712168005367e+01,4.199585917232860055e+01,4.196240518838789768e+01,4.192697714638666895e+01,4.188877702285362403e+01,4.184709079678814447e+01,4.180116244595429720e+01,4.175029894996912105e+01,4.169384928968499793e+01,4.163126744904262466e+01,4.156249042618900802e+01,4.148783323038912840e+01,4.140777467572576143e+01,4.132291117974057926e+01,4.123386646077825191e+01,4.114129363804818240e+01,4.104602223594811505e+01
4.094899938233477599e+01,4.085092649783817365e+01,4.075224459542928201e+01,4.065303767757875164e+01,4.055334774552193267e+01,4.045313279802347495e+01,4.035243483631872152e+01,4.025110685608400729e+01,4.014866584311303654e+01,4.004460778258184916e+01,3.993880667078443736e+01,3.983174552192711815e+01,3.972453736874614805e+01,3.961861025324274976e+01,3.951541321803582463e+01,3.941654231006794618e+01,3.932392958616429723e+01,3.923954910438542498e+01,3.916489190858554537e+01,3.910042001235330389e+01,3.904455836936380564e+01,3.899520691785052406e+01,3.894942557134033478e+01,3.890385423100679674e+01,3.885576281655343678e+01,3.880116121062384593e+01,3.873752933909820939e+01,3.866318715256331728e+01,3.857855466337245076e+01,3.848594193946880893e+01,3.838849907350216739e+01,3.828958616429895301e+01,3.819235330450896271e+01,3.810037059913527457e+01,3.801615812229771763e+01,3.794181593576281841e+01,3.787734403953057694e+01,3.782127239036442745e+01,3.777087090796788971e+01,3.772361951822112758e+01,3.767678814082767502e+01,3.762848672019764962e+01,3.757661519456454613e+01,3.751949351451513337e+01,3.745649166151946474e+01,3.738823965410747263e+01,3.731557751698579750e+01,3.723997529339098378e+01,3.716248301420630185e+01,3.708394070413835664e+01,3.700518838789376730e+01,3.692643607164917086e+01,3.684831377393453522e+01,3.677061148857319495e+01
3.669290920321186178e+01,3.661436689314391657e+01,3.653519456454601766e+01,3.645455219271156011e+01,3.637285978999382507e+01,3.628969734403953851e+01,3.620485484867202786e+01,3.611875231624459559e+01,3.603096973440395345e+01,3.594171710932675268e+01,3.585078443483632071e+01,3.575796170475602764e+01,3.566282890673254968e+01,3.556496602841260568e+01,3.546437306979616721e+01,3.536084002470661147e+01,3.525415688696726590e+01,3.514432365657813051e+01,3.503134033353921950e+01,3.491583693638047947e+01,3.479802347127856876e+01,3.467852995676343397e+01,3.455819641754169425e+01,3.443765287214330328e+01,3.431773934527485892e+01,3.419971587399629698e+01,3.408442248301420818e+01,3.397332921556517249e+01,3.386748610253243186e+01,3.376836318715257335e+01,3.367701050030883891e+01,3.359489808523780852e+01,3.352244595429277751e+01,3.346028412600371382e+01,3.340883261272390570e+01,3.336746139592341365e+01,3.333596046942557223e+01,3.331306979617047404e+01,3.329710932674490920e+01,3.328639901173563942e+01,3.327862878319950823e+01,3.327190858554664032e+01,3.326413835701050203e+01,3.325342804200123936e+01,3.323767757875231865e+01,3.321541692402718127e+01,3.318538604076590559e+01,3.314716491661519626e+01,3.310012353304509247e+01,3.304384187770228465e+01,3.297726991970352373e+01,3.290019765287214426e+01,3.281220506485485089e+01,3.271308214947498527e+01
3.260324891908586409e+01,3.248312538604076849e+01,3.235460160592958800e+01,3.222124768375540782e+01,3.208894379246449091e+01,3.196504014823965534e+01,3.185814700432365854e+01,3.177750463248919743e+01,3.173214329833230707e+01,3.173067325509574133e+01,3.177960469425571333e+01,3.188166769610871043e+01,3.203497220506485377e+01,3.223300802964793377e+01,3.246485484867202587e+01,3.271728227300803127e+01,3.297432983323039224e+01,3.321898702903027356e+01,3.343487337862878661e+01,3.360938851142680761e+01,3.373539221741815908e+01,3.381225447807288731e+01,3.384606547251389941e+01,3.384732550957381392e+01,3.383178505250154444e+01,3.381813465101915028e+01,3.382695491043854474e+01,3.387588634959851674e+01,3.397521927115503360e+01,3.412663372452131938e+01,3.432109944410129998e+01,3.454202594193947107e+01,3.476484249536751037e+01,3.496014823965411011e+01,3.509413218035825111e+01,3.513634342186535520e+01,3.506725138974675815e+01,3.488475602223594763e+01,3.460586781964175174e+01,3.426670784434836747e+01,3.392019765287214739e+01,3.363584928968499099e+01,3.349850525015441605e+01,3.359993823347745945e+01,3.402772081531810500e+01,3.485514515132798152e+01,3.613345274861025302e+01,3.788805435453984671e+01,4.012052501544162908e+01,4.280163187152564319e+01,4.586870907967881550e+01,4.922796788140828284e+01,5.276195182211242241e+01,5.633835701050031020e+01
5.982214947498455615e+01,6.307745521927115817e+01,6.597344039530574378e+01,6.838641136504014639e+01,7.022186534898087018e+01,7.140630018529958534e+01,7.190611488573193810e+01,7.171290920321186491e+01,7.084558369363804786e+01,6.934823965410748770e+01,6.729227918468190239e+01,6.477640518838788353e+01,6.190772081531809334e+01,5.880802964793082310e+01,5.559430512662137858e+01,5.238100061766523652e+01,4.927731933292156441e+01,4.638112415071032046e+01,4.377263743051266687e+01,4.150961087090797719e+01,3.962461642989499921e+01,3.812620135886349715e+01,3.700245830759727994e+01,3.622123533045089516e+01,3.573192093885114673e+01,3.547025324274243729e+01,3.536504014823965747e+01,3.534487955528103953e+01,3.534592958616430280e+01,3.531757875231624411e+01,3.522328597899938529e+01,3.504478072884496953e+01,3.478059295861643108e+01,3.444563310685608570e+01,3.406741198270537296e+01,3.368373069796170682e+01,3.333701050030883550e+01,3.306883261272390939e+01,3.291762816553428195e+01,3.291447807288449923e+01,3.308122297714638904e+01,3.343046324891908938e+01,3.396198888202594901e+01,3.466403953057442777e+01,3.551372452130945589e+01,3.646988264360717125e+01,3.746552192711551044e+01,3.839185917232860135e+01,3.909726991970352117e+01,3.942433353922174888e+01,3.925355651636812837e+01,3.856385423100680043e+01,3.747665225447807558e+01,3.622060531192094146e+01
3.508825200741198813e+01,3.436184064237183833e+01,3.419341568869672443e+01,3.458423718344658226e+01,3.542846201358863567e+01,3.659378628783199616e+01,3.817996294008647595e+01,4.090632612723904060e+01,4.621836936380482541e+01,5.551660284126003830e+01,6.938184064237182724e+01,8.822359481161211647e+01,1.127922174181593675e+02,1.422371834465719758e+02,1.720664607782581754e+02,1.962738727609635703e+02,2.121755404570722590e+02,2.216993205682520056e+02,2.282053119209388399e+02,2.333126621371216629e+02,2.358747374922791664e+02,2.333399629400864796e+02,2.245995058678196301e+02,2.108756022235948251e+02,1.938525015441630899e+02,1.745130327362569460e+02,1.539072266831377362e+02,1.336374305126621209e+02,1.151043854231006804e+02,9.888980852378010411e+01,8.495589870290302770e+01,7.302754786905498463e+01,6.282754786905497468e+01,5.417949351451512996e+01,4.701870290302656485e+01,4.130422903026560277e+01,3.691908585546634214e+01,3.363668931439161014e+01,3.118297714638666207e+01,2.930384187770228976e+01,2.778948733786288372e+01,2.648828906732551047e+01,2.529188387893762169e+01,2.412004941321803742e+01,2.294212476837554249e+01,2.178079061148857676e+01,2.069652872143299049e+01,1.976578134651019525e+01,1.905176034589252865e+01,1.858554663372452254e+01,1.836924027177270347e+01,1.839024088943792989e+01,1.862544780728845595e+01,1.904546016059295965e+01
1.961037677578752536e+01,2.026559604694255867e+01,2.095105620753551889e+01,2.161173563928350916e+01,2.219870290302656102e+01,2.267268684373069831e+01,2.300575663990117548e+01,2.318300185299568028e+01,2.320652254478073218e+01,2.309689932056825512e+01,2.289004323656578421e+01,2.262942557134033450e+01,2.235977764051884265e+01,2.212184064237183634e+01,2.194984558369364080e+01,2.186815318097591643e+01,2.188789376158122835e+01,2.200486720197653057e+01,2.220290302655961057e+01,2.245764051883879375e+01,2.274492896849907453e+01,2.304481778875849685e+01,2.334449660284126082e+01,2.363871525633107495e+01,2.393146386658431624e+01,2.423366275478690923e+01,2.456232242124768561e+01,2.493613341568870112e+01,2.537021618282890500e+01,2.587318097591105825e+01,2.644523780111180145e+01,2.707819641754169737e+01,2.775714638665843381e+01,2.846234712785670240e+01,2.917132798023471452e+01,2.986140827671402320e+01,3.051221741815935928e+01,3.110821494749846039e+01,3.163953057442866168e+01,3.210196417541692426e+01,3.249782581840642592e+01,3.283257566399012006e+01,3.311524397776405948e+01,3.335612106238419017e+01,3.356612723903644735e+01,3.375513279802346744e+01,3.393300802964793661e+01,3.410668313773935267e+01,3.428098826436071533e+01,3.445844348363187493e+01,3.463925880172946847e+01,3.482364422483014010e+01,3.501054972205065496e+01,3.519913526868437970e+01
3.538814082767140690e+01,3.557693638048178286e+01,3.576489190858554679e+01,3.595305744286596905e+01,3.614311303273625242e+01,3.633610870907968149e+01,3.653267449042619575e+01,3.673260037059913685e+01,3.693483631871526285e+01,3.713833230389128914e+01,3.734119827053737595e+01,3.754091414453366582e+01,3.773432983323039025e+01,3.791871525633106899e+01,3.809218035824583382e+01,3.825325509573811189e+01,3.840172946263125908e+01,3.853760345892526118e+01,3.866171710932674443e+01,3.877554045707227459e+01,3.888096355775170565e+01,3.897987646695492003e+01,3.907500926497838378e+01,3.916846201358863766e+01,3.926250277949351641e+01,3.935956763434218431e+01,3.946165163681284582e+01,3.957079184681902717e+01,3.968864731315627381e+01,3.981652007411983618e+01,3.995518715256331177e+01,4.010494255713403788e+01,4.026540827671401956e+01,4.043568128474366574e+01,4.061422853613341744e+01,4.079892896849907657e+01,4.098709450277949173e+01,4.117562124768375043e+01,4.136119740580605963e+01,4.154052378011118662e+01,4.171037677578752323e+01,4.186771340333539371e+01,4.200957257566400216e+01,4.213341321803582673e+01,4.223713526868436929e+01,4.231920568252007797e+01,4.237844842495368169e+01,4.241372946263125243e+01,4.242397776405188381e+01,4.240820630018529869e+01,4.236589005558987253e+01,4.229679802347128259e+01,4.220082520074119969e+01,4.207799258801730247e+01
4.192838418777023435e+01,4.175288202594194331e+01,4.155343915997529791e+01,4.133281927115503862e+01,4.109424385423101711e+01,4.084088820259420061e+01,4.057581840642372129e+01,4.030192835083385461e+01,4.002178011117974421e+01,3.973673872760964088e+01,3.944596417541693256e+01,3.914620135886350027e+01,3.883245213094503612e+01,3.849812229771464445e+01,3.813628165534280612e+01,3.773999999999999488e+01,3.730129709697344254e+01,3.681366275478691108e+01,3.627205682520074959e+01,3.567437924644843150e+01,3.502063001852996393e+01,3.431227918468191262e+01,3.355226683137739485e+01,3.274332303891291218e+01,3.188901791229154270e+01,3.099313156269302638e+01,3.005881408276714239e+01,2.908879555281037810e+01,2.808454601605929568e+01,2.704774552192711567e+01,2.598049413218036108e+01,2.488594193946881106e+01,2.376828906732551516e+01,2.263278567016677201e+01,2.148573193329216124e+01,2.033384805435454368e+01,1.918616429894997211e+01,1.805003088326127170e+01,1.693489808523780482e+01,1.585126621371217226e+01,1.480543545398394301e+01,1.380580605311921261e+01,1.285867819641754295e+01,1.196825200741198536e+01,1.114292773316862473e+01,1.038480543545398582e+01,9.698085237801111091e+00,9.082767140210007639e+00,8.540951204447193135e+00,8.076837554045711798e+00,7.692526250772083074e+00,7.388017294626314069e+00,7.167510809141446337e+00,7.031006794317485209e+00
6.982705373687466910e+00,7.020506485484866666e+00,7.146510191476224350e+00,7.356516368128474426e+00,7.646324891908589549e+00,8.011735639283511290e+00,8.444348363187154760e+00,8.933662754786908522e+00,9.475478690549723026e+00,1.005929586164299039e+01,1.067671402100062039e+01,1.132353304508956526e+01,1.199135268684373301e+01,1.267807288449660597e+01,1.338369363804818057e+01,1.410611488573193384e+01,1.484533662754787287e+01,1.559715873996294278e+01,1.635948116121062768e+01,1.713440395305744346e+01,1.791772699197035479e+01,1.870735021618283156e+01,1.949487337862878533e+01,2.027798641136504187e+01,2.105248919085855519e+01,2.181376158122298037e+01,2.255781346510191554e+01,2.328065472513897660e+01,2.397808523780111400e+01,2.464695491043854148e+01,2.528453366275478942e+01,2.588830142063002171e+01,2.645594811612106767e+01,2.698516368128474952e+01,2.747384805435454069e+01,2.792032118591723844e+01,2.832332303891291403e+01,2.868222359481161732e+01,2.899660284126003873e+01,2.926688079061149139e+01,2.949410747374922792e+01,2.967975293390982472e+01,2.982633724521309304e+01,2.993743051266213939e+01,3.001618282890673584e+01,3.006721432983323439e+01,3.009451513279802626e+01,3.010333539221742427e+01,3.009871525633106870e+01,3.008548486720197701e+01,3.006889437924645136e+01,3.005398394070413914e+01,3.004558369363805426e+01,3.004852378011118574e+01
3.006637430512662235e+01,3.010312538604077304e+01,3.016150710315009675e+01,3.024361951822112360e+01,3.035135268684373244e+01,3.048554663372452112e+01,3.064620135886349672e+01,3.083331686226065926e+01,3.104563310685608712e+01,3.128210006176652769e+01,3.154082767140210208e+01,3.181950586781964674e+01,3.211561457689931842e+01,3.242642371834466530e+01,3.274899320568252392e+01,3.308038295243978411e+01,3.341744286596664892e+01,3.375786287831995480e+01,3.409891290920321438e+01,3.443870290302655945e+01,3.477555281037677304e+01,3.510841260037059897e+01,3.543623224212477396e+01,3.575859172328598135e+01,3.607528103767757699e+01,3.638672019765288468e+01,3.669311920938851301e+01,3.699510809141445122e+01,3.729373687461396969e+01,3.758942557134033535e+01,3.788364422483014238e+01,3.817744286596665404e+01,3.847166151945645396e+01,3.876714021000617549e+01,3.906471896232243068e+01,3.936452378011117759e+01,3.966695367510809689e+01,3.997179864113651604e+01,4.027868066707844719e+01,4.058699073502161525e+01,4.089595182211241564e+01,4.120460210006176283e+01,4.151187893761581194e+01,4.181663990117357343e+01,4.211766275478690602e+01,4.241366646077825919e+01,4.270343298332304016e+01,4.298570228536134152e+01,4.325931933292155662e+01,4.352336009882644419e+01,4.377662754786906163e+01,4.401897467572576517e+01,4.424956145768993565e+01,4.446796788140827772e+01
4.467440395305744261e+01,4.486886967263743031e+01,4.505115503397159671e+01,4.522210006176652541e+01,4.538170475602223775e+01,4.553059913526868741e+01,4.566962322421247933e+01,4.579919703520692309e+01,4.592016059295862362e+01,4.603335392217418587e+01,4.613982705373688020e+01,4.624021000617666033e+01,4.633555281037677531e+01,4.642627547869055604e+01,4.651342804200123737e+01,4.659743051266213598e+01,4.667849289684991021e+01,4.675682520074120418e+01,4.683221741815935957e+01,4.690424953675108810e+01,4.697250154416306600e+01,4.703718344657195871e+01,4.709850525015442457e+01,4.715646695491044937e+01,4.721190858554663805e+01,4.726567016676961686e+01,4.731901173563929319e+01,4.737361334156886983e+01,4.743031500926498012e+01,4.748848672019765615e+01,4.754686843730698342e+01,4.760294008647314001e+01,4.765418159357628269e+01,4.769702285361334759e+01,4.772789376158122110e+01,4.774322421247683934e+01,4.774112415071031279e+01,4.772243360098826059e+01,4.769072266831378215e+01,4.765187152563311201e+01,4.761281037677579064e+01,4.758067943174799552e+01,4.756345892526250907e+01,4.756828906732550877e+01,4.760042001235330389e+01,4.766153180975911141e+01,4.774931439159976065e+01,4.785851760345892814e+01,4.798179122915379935e+01,4.811199505867820392e+01,4.824135886349598934e+01,4.836295243977763647e+01,4.847089561457689655e+01,4.856224830142063098e+01
4.863722050648549100e+01,4.869833230389129142e+01,4.874915379864113874e+01,4.879388511426807185e+01,4.883546633724521513e+01,4.887704756022235841e+01,4.892093885114268659e+01,4.896798023471278327e+01,4.901817171093267689e+01,4.906941321803582667e+01,4.912002470660901565e+01,4.916811612106238272e+01,4.921284743668931583e+01,4.925358863495986128e+01,4.929033971587399776e+01,4.932331068560840492e+01,4.935334156886967349e+01,4.938127239036442973e+01,4.940836318715256681e+01,4.943608400247066470e+01,4.946485484867202587e+01,4.949530574428660401e+01,4.952764669549104326e+01,4.956208770846201617e+01,4.959904879555281809e+01,4.963831995058678359e+01,4.967948116121063151e+01,4.972295243977764301e+01,4.976789376158123446e+01,4.981451513279802157e+01,4.986260654725138863e+01,4.991174799258801187e+01,4.996214947498456382e+01,5.001360098826435774e+01,5.006589252625077791e+01,5.011902408894379590e+01,5.017320568252007718e+01,5.022801729462631926e+01,5.028366893143915917e+01,5.034016059295861822e+01,5.039728227300803809e+01,5.045524397776405578e+01,5.051404570722669263e+01,5.057347745521927607e+01,5.063353922174182031e+01,5.069402100061767413e+01,5.075471278567017208e+01,5.081582458307597960e+01,5.087630636195182632e+01,5.093636812847437056e+01,5.099579987646696111e+01,5.105418159357628127e+01,5.111235330450896441e+01,5.116989499691167254e+01
5.122764669549104610e+01,5.128539839407042678e+01,5.134399011735639817e+01,5.140342186534898161e+01,5.146432365657813790e+01,5.152564546016058955e+01,5.158675725756639707e+01,5.164639901173563885e+01,5.170352069178505872e+01,5.175665225447808382e+01,5.180474366893144378e+01,5.184653489808523830e+01,5.188118591723285533e+01,5.190848672019765786e+01,5.192885731933291993e+01,5.194334774552192613e+01,5.195279802347128140e+01,5.195783817171093943e+01,5.195951822112415641e+01,5.195846819024089314e+01,5.195552810376776165e+01,5.195048795552811072e+01,5.194313773934527489e+01,5.193263743051267056e+01,5.191835701050030849e+01,5.189987646695491463e+01,5.187656578134651397e+01,5.184800494132181115e+01,5.181398394070414781e+01,5.177429277331685853e+01,5.172914144533663006e+01,5.167936998147004601e+01,5.162539839407042308e+01,5.156743668931439117e+01,5.150590487955528118e+01,5.144143298332303971e+01,5.137444101297096921e+01,5.130555898702903761e+01,5.123478690549721648e+01,5.116233477455219258e+01,5.108820259419395171e+01,5.101218035824582842e+01,5.093447807288450235e+01,5.085488573193329387e+01,5.077340333539222428e+01,5.069003088326127227e+01,5.060476837554045915e+01,5.051824583075973862e+01,5.043130327362570142e+01,5.034541074737492750e+01,5.026182828906733135e+01,5.018139592340951793e+01,5.010600370599136255e+01,5.003670166769610717e+01
4.997411982705374101e+01,4.991909820877085480e+01,4.987121680049413897e+01,4.982942557134034445e+01,4.979288449660284499e+01,4.975991352686843783e+01,4.972904261890055722e+01,4.969880172946263741e+01,4.966751080914144723e+01,4.963453983940704717e+01,4.959904879555281809e+01,4.956124768375540413e+01,4.952176652254478029e+01,4.948144533662755151e+01,4.944217418159358601e+01,4.940542310067943532e+01,4.937245213094502816e+01,4.934410129709697657e+01,4.931995058678196386e+01,4.929894996911674099e+01,4.927941939468808386e+01,4.925841877702285387e+01,4.923237801111797296e+01,4.919709697344039512e+01,4.915005558987028422e+01,4.909083384805435912e+01,4.902153180975911084e+01,4.894718962322421874e+01,4.887473749227918773e+01,4.881257566399012404e+01,4.877015441630636872e+01,4.875692402717726992e+01,4.878002470660901935e+01,4.884113650401482687e+01,4.893626930203829772e+01,4.905492279184682758e+01,4.918155651636813275e+01,4.929936998147004346e+01,4.938946263125386338e+01,4.943398394070413815e+01,4.941823347745522454e+01,4.933423100679431883e+01,4.918281655342804726e+01,4.897449042618900705e+01,4.872689314391599424e+01,4.846102532427424592e+01,4.819851760345892444e+01,4.796079061148857647e+01,4.776590487955528630e+01,4.762604076590487523e+01,4.754539839407041768e+01,4.751872760963558306e+01,4.753300802964793093e+01,4.757227918468190353e+01
4.761953057442865855e+01,4.765901173563928950e+01,4.767728227300803212e+01,4.766384187770228920e+01,4.761344039530574435e+01,4.752733786287831919e+01,4.741120444718962545e+01,4.727386040765905051e+01,4.712433600988264715e+01,4.697019147621989532e+01,4.681772699197036047e+01,4.667156269302039107e+01,4.653505867819642106e+01,4.640821494749845755e+01,4.628935145151328356e+01,4.617531809759110217e+01,4.606317479925880320e+01,4.595040148239654343e+01,4.583594811612105957e+01,4.571939468807906337e+01,4.560032118591723815e+01,4.547893761581223515e+01,4.535650401482396177e+01,4.523386040765905136e+01,4.511247683755404836e+01,4.499277331686226944e+01,4.487516985793699575e+01,4.475966646077825573e+01,4.464563310685608855e+01,4.453306979617048000e+01,4.442134651019147640e+01,4.431046324891909194e+01,4.419957998764670037e+01,4.408848672019765047e+01,4.397718344657196354e+01,4.386567016676961828e+01,4.375373687461396344e+01,4.364180358245830860e+01,4.352966028412600963e+01,4.341772699197035479e+01,4.330583570105003588e+01,4.319428042001235468e+01,4.308312415071031864e+01,4.297240889437924949e+01,4.286217665225448314e+01,4.275246942557134133e+01,4.264330821494749557e+01,4.253469302038295297e+01,4.242668684373070676e+01,4.231928968499073562e+01,4.221256454601606123e+01,4.210657442865967681e+01,4.200134033353922547e+01,4.189692526250772175e+01
4.179335021618283008e+01,4.169067819641755079e+01,4.158893020382952699e+01,4.148812723903644439e+01,4.138830290302656323e+01,4.128949079678815082e+01,4.119172032118591886e+01,4.109501877702285810e+01,4.099937986411364932e+01,4.090481408276714603e+01,4.081129833230389181e+01,4.071874861025325032e+01,4.062716491661520024e+01,4.053640024706609779e+01,4.044626559604694194e+01,4.035659295861643159e+01,4.026723533045089454e+01,4.017815071031501617e+01,4.008933909820877517e+01,4.000084249536751457e+01,3.991274490426189203e+01,3.982523533045089437e+01,3.973867078443484502e+01,3.965345027794935362e+01,3.956997282273008665e+01,3.948840642371835230e+01,3.940868807906114313e+01,3.933060778258184342e+01,3.925395552810377353e+01,3.917843730697961746e+01,3.910357010500309372e+01,3.902859789993824080e+01,3.895341568869672955e+01,3.887760345892527170e+01,3.880158122297714840e+01,3.872639901173564425e+01,3.865268684373069874e+01,3.858149474984558935e+01,3.851366275478690682e+01,3.845003088326127738e+01,3.839143915997529888e+01,3.833788758492897131e+01,3.828832612723903139e+01,3.824149474984558594e+01,3.819529339098208709e+01,3.814825200741199041e+01,3.809827053736874802e+01,3.804408894379246675e+01,3.798402717726992250e+01,3.791745521927116158e+01,3.784437306979617688e+01,3.776604076590488290e+01,3.768350833848055004e+01,3.759866584311303228e+01
3.751340333539221916e+01,3.742961087090796468e+01,3.734938851142680960e+01,3.727483631871526626e+01,3.720805435453983989e+01,3.715072266831377590e+01,3.710473131562693538e+01,3.707113032736257452e+01,3.705138974675726615e+01,3.704676961087091769e+01,3.705789993823348283e+01,3.708562075355158072e+01,3.712951204447189468e+01,3.718936380481778770e+01,3.726433600988264772e+01,3.735379864113651394e+01,3.745670166769611598e+01,3.757241507103150724e+01,3.769967881408277321e+01,3.783660284126003148e+01,3.798171710932674472e+01,3.813292155651636506e+01,3.828811612106238016e+01,3.844415071031501441e+01,3.859661519456454926e+01,3.874067943174799922e+01,3.887130327362570625e+01,3.898386658431130769e+01,3.907395923409512051e+01,3.913759110562076415e+01,3.917161210623842038e+01,3.917455219271155187e+01,3.914683137739346108e+01,3.909054972205065326e+01,3.900906732550957656e+01,3.890658431130327699e+01,3.878709079678814220e+01,3.865604694255713270e+01,3.851849289684990651e+01,3.837862878319950966e+01,3.824044471896232977e+01,3.810604076590488631e+01,3.797772699197034996e+01,3.785655342804201240e+01,3.774420012353304799e+01,3.764192711550339965e+01,3.755015441630636275e+01,3.746993205682520767e+01,3.740231006794318347e+01,3.734833848054355343e+01,3.730906732550958083e+01,3.728491661519456812e+01,3.727609635577517366e+01,3.728155651636813417e+01
3.730045707226683760e+01,3.733153798641136945e+01,3.737206917850525656e+01,3.741974058060530695e+01,3.747161210623841754e+01,3.752474366893144264e+01,3.757640518838789490e+01,3.762386658431130826e+01,3.766502779493514907e+01,3.769778875849289790e+01,3.772088943792464732e+01,3.773390982087708068e+01,3.773747992588017297e+01,3.773180975911056834e+01,3.771815935762816707e+01,3.769841877702285871e+01,3.767489808523780681e+01,3.764990735021618917e+01,3.762470660901791319e+01,3.759950586781964432e+01,3.757430512662137545e+01,3.754868437306980411e+01,3.752180358245831115e+01,3.749177269919703548e+01,3.745712168004941844e+01,3.741617047560222886e+01,3.736912909203211797e+01,3.731830759728227775e+01,3.726790611488573290e+01,3.722254478072885320e+01,3.718705373687460991e+01,3.716731315626930154e+01,3.716815318097592069e+01,3.719419394688079450e+01,3.724711550339716126e+01,3.732397776405188949e+01,3.741911056207535324e+01,3.752432365657814017e+01,3.763016676961087370e+01,3.772697961704756153e+01,3.780489190858555304e+01,3.785487337862878121e+01,3.787062384187770192e+01,3.785004323656578862e+01,3.779544163063620488e+01,3.771248919085856244e+01,3.760832612723903878e+01,3.749009264978381850e+01,3.736576899320568401e+01,3.724291537986411527e+01,3.712762198888202647e+01,3.702345892526250992e+01,3.693042618900556562e+01,3.684705373687461361e+01
3.676998147004324125e+01,3.669689932056824944e+01,3.662528721432983758e+01,3.655367510809141862e+01,3.648080296479308515e+01,3.640709079678814675e+01,3.633379864113651081e+01,3.626365657813465049e+01,3.620002470660902105e+01,3.614521309450278608e+01,3.610069178505250420e+01,3.606772081531810414e+01,3.604630018529956459e+01,3.603621988882026272e+01,3.603642989499691396e+01,3.604546016059295965e+01,3.606121062384188036e+01,3.608221124150710324e+01,3.610636195182211594e+01,3.613261272390364809e+01,3.615970352069179228e+01,3.618637430512662689e+01,3.621157504632489577e+01,3.623446571957998685e+01,3.625420630018530233e+01,3.627058678196417674e+01,3.628318715256331473e+01,3.629158739962940672e+01,3.629662754786905765e+01,3.629809759110562339e+01,3.629683755404570888e+01,3.629347745521926782e+01,3.628801729462631442e+01,3.628024706609018324e+01,3.627058678196417674e+01,3.625882643607164368e+01,3.624475602223594706e+01,3.622774552192711894e+01,3.620758492896850100e+01,3.618469425571340281e+01,3.615949351451513394e+01,3.613387276096355549e+01,3.610909203211859619e+01,3.608662137121680757e+01,3.606835083384805785e+01,3.605554045707226862e+01,3.604966028412600565e+01,3.605134033353922263e+01,3.606016059295861709e+01,3.607486102532427452e+01,3.609397158739962919e+01,3.611581222977147121e+01,3.613870290302656230e+01,3.616117356392835092e+01
3.618112415071031762e+01,3.619750463248919203e+01,3.620989499691167168e+01,3.621913526868437572e+01,3.622627547869054609e+01,3.623236565781346741e+01,3.623866584311303285e+01,3.624643607164917114e+01,3.625756639901173628e+01,3.627331686226065699e+01,3.629452748610253821e+01,3.631993823347746542e+01,3.634807906114885867e+01,3.637684990735021273e+01,3.640436071649166649e+01,3.642830142063002086e+01,3.644573193329215854e+01,3.645434218653490177e+01,3.645245213094503356e+01,3.644132180358246131e+01,3.642368128474367239e+01,3.640331068560840322e+01,3.638441012970969979e+01,3.637138974675725933e+01,3.636844966028413495e+01,3.638063001852996337e+01,3.641066090179123194e+01,3.645854231006794777e+01,3.652154416306362350e+01,3.659483631871525944e+01,3.667358863495985588e+01,3.675234095120445232e+01,3.682626312538604196e+01,3.688968499073502727e+01,3.693903644224830174e+01,3.697263743051266260e+01,3.699195799876467561e+01,3.700014823965410926e+01,3.700098826436071420e+01,3.699762816553428024e+01,3.699363804817789259e+01,3.699132798023471480e+01,3.699321803582459012e+01,3.699993823347745803e+01,3.701064854848672070e+01,3.702324891908585869e+01,3.703500926497838464e+01,3.704403953057443033e+01,3.704886967263743003e+01,3.704886967263743003e+01,3.704340951204447663e+01,3.703248919085855562e+01,3.701715873996293737e+01,3.699888820259420186e+01
3.698019765287214966e+01,3.696318715256331444e+01,3.694953675108092028e+01,3.694113650401482829e+01,3.693987646695491378e+01,3.694638665843113046e+01,3.696150710315009746e+01,3.698565781346511017e+01,3.701862878319951022e+01,3.705957998764669981e+01,3.710725138974676440e+01,3.715996294008647993e+01,3.721687461395924146e+01,3.727777640518839064e+01,3.734245830759729046e+01,3.741176034589253163e+01,3.748652254478073331e+01,3.756758492896850044e+01,3.765641754169240585e+01,3.775407041383570572e+01,3.786033353922174172e+01,3.797289684990735736e+01,3.808840024706609029e+01,3.820138357010500840e+01,3.830701667696108359e+01,3.840025941939469334e+01,3.847607164916615119e+01,3.852983323038912999e+01,3.855923409512044486e+01,3.856469425571341247e+01,3.854915379864113589e+01,3.851807288449660405e+01,3.847712168004940736e+01,3.843218035824583012e+01,3.838912909203212109e+01,3.835405806053119449e+01,3.833137739345274753e+01,3.832381717109327468e+01,3.833137739345274753e+01,3.835237801111798461e+01,3.838387893761581182e+01,3.842357010500309400e+01,3.846935145151328328e+01,3.851786287831995281e+01,3.856658431130327358e+01,3.861299567634342367e+01,3.865667696108709350e+01,3.869867819641754636e+01,3.874088943792465045e+01,3.878457072266831318e+01,3.883119209388511450e+01,3.888285361334156676e+01,3.894165534280420360e+01,3.900990735021618150e+01
3.908886967263744339e+01,3.917690426189005848e+01,3.927075602223595041e+01,3.936588882025942127e+01,3.945730450895614183e+01,3.953971093267448822e+01,3.960710191476219677e+01,3.965317726991970915e+01,3.967316985793699757e+01,3.966609264978382754e+01,3.963528474366893306e+01,3.958790735021618445e+01,3.953320074119827154e+01,3.948137121680048978e+01,3.944321309450278790e+01,3.942989870290303145e+01,3.945113032736256997e+01,3.951251513279802907e+01,3.961367510809142090e+01,3.974820506485485083e+01,3.990566769610871489e+01,4.007394564546016369e+01,4.024050154416306668e+01,4.039271402100061437e+01,4.051886473131563093e+01,4.061028042001235150e+01,4.066376899320568583e+01,4.068231253860408003e+01,4.067363928350834357e+01,4.064755651636813383e+01,4.061401852995676620e+01,4.058272760963558312e+01,4.056317603458924737e+01,4.056361704756022846e+01,4.058923780111180690e+01,4.064083631871525171e+01,4.071496849907350679e+01,4.080617418159358323e+01,4.090886720197653403e+01,4.101769240271773498e+01,4.112713502161828671e+01,4.123151649166151600e+01,4.132591426806671109e+01,4.140812538604077275e+01,4.147980889437925356e+01,4.154539592340951515e+01,4.161049783817171743e+01,4.168114391599753077e+01,4.176352933909821274e+01,4.186426930203830210e+01,4.198987399629401551e+01,4.214416553428042533e+01,4.232607288449661098e+01,4.252942186534898639e+01
4.274413218035824968e+01,4.295800247066090094e+01,4.315830636195182279e+01,4.333206547251389651e+01,4.346644842495367556e+01,4.355192093885115412e+01,4.358447189623224460e+01,4.356683137739345568e+01,4.350844966028412841e+01,4.342234712785670325e+01,4.332299320568252199e+01,4.322473131562693283e+01,4.314167387276096832e+01,4.308556022235948291e+01,4.306371957998764799e+01,4.307749598517603573e+01,4.312191229153799554e+01,4.318806423718343979e+01,4.326610253242742488e+01,4.334626189005559382e+01,4.341961704756022300e+01,4.347841877702285274e+01,4.351726991970352287e+01,4.353386040765905562e+01,4.353050030883261456e+01,4.351180975911056237e+01,4.348282890673254997e+01,4.344859789993823540e+01,4.341289684990735509e+01,4.337845583693638218e+01,4.334781593576281722e+01,4.332215318097591705e+01,4.330083755404571377e+01,4.328204200123533241e+01,4.326368746139592503e+01,4.324407288449661024e+01,4.322231624459543298e+01,4.319808153180976262e+01,4.317124274243360560e+01,4.314196788140828431e+01,4.311082396541075923e+01,4.307881902408894348e+01,4.304710809141445083e+01,4.301669919703520861e+01,4.298822235948115633e+01,4.296205558987029605e+01,4.293842989499691498e+01,4.291753428042002128e+01,4.289945274861025837e+01,4.288410129709697571e+01,4.287122791846819325e+01,4.286066460778258147e+01,4.285222235948116065e+01,4.284579617047560873e+01
4.284123903644225351e+01,4.283850895614577325e+01,4.283752192711550322e+01,4.283848795552810884e+01,4.284161704756022715e+01,4.284722421247683855e+01,4.285556145768993019e+01,4.286698579369981132e+01,4.288177022853613352e+01,4.290016676961087683e+01,4.292234342186535656e+01,4.294819518221124355e+01,4.297747004323657194e+01,4.300985299567634712e+01,4.304496602841260255e+01,4.308228412600371371e+01,4.312128227300803474e+01,4.316137245213094786e+01,4.320209264978382180e+01,4.324325386040766261e+01,4.328477208153180555e+01,4.332654231006794276e+01,4.336862754786906038e+01,4.341121680049413811e+01,4.345489808523780795e+01,4.350025941939469476e+01,4.354751080914144978e+01,4.359644224830142889e+01,4.364600370599135459e+01,4.369535515750462906e+01,4.374302655960469366e+01,4.378775787523162677e+01,4.382702903026559937e+01,4.385894996911674326e+01,4.388163063619519022e+01,4.389549104385422851e+01,4.390179122915380105e+01,4.390389129092032761e+01,4.390494132180358378e+01,4.390935145151328101e+01,4.392153180975911653e+01,4.394631253860408293e+01,4.398768375540457498e+01,4.404627547869054638e+01,4.412019765287215023e+01,4.420504014823966088e+01,4.429450277949351999e+01,4.438165534280420843e+01,4.445977764051884407e+01,4.452172946263125652e+01,4.456163063619518994e+01,4.457654107473749860e+01,4.456709079678815044e+01,4.453789993823348681e+01
4.449505867819642191e+01,4.444528721432983787e+01,4.439551575046324672e+01,4.435225447807289356e+01,4.432096355775170338e+01,4.430542310067943390e+01,4.430647313156269007e+01,4.432159357628165708e+01,4.434700432365657718e+01,4.437829524397776737e+01,4.441168622606547700e+01,4.444360716491661378e+01,4.447111797405806755e+01,4.449232859789993455e+01,4.450639901173563828e+01,4.451437924644842781e+01,4.451836936380482257e+01,4.452004941321803955e+01,4.452088943792464448e+01,4.452235948116121733e+01,4.452466954910439512e+01,4.452886967263743401e+01,4.453495985176034822e+01,4.454252007411982817e+01,4.455092032118592016e+01,4.455953057442865628e+01,4.456835083384805785e+01,4.457675108091414984e+01,4.458536133415689307e+01,4.459397158739962919e+01,4.460279184681902365e+01,4.461224212476837891e+01,4.462232242124768788e+01,4.463345274861025302e+01,4.464563310685608855e+01,4.465886349598518734e+01,4.467314391599753520e+01,4.468826436071650221e+01,4.470443483631871828e+01,4.472144533662755350e+01,4.473887584928969119e+01,4.475693638048178258e+01,4.477541692402718354e+01,4.479410747374923574e+01,4.481300802964793206e+01,4.483190858554663549e+01,4.485080914144533182e+01,4.486970969734404235e+01,4.488840024706609455e+01,4.490709079678814675e+01,4.492557134033354771e+01,4.494384187770229033e+01,4.496169240271773049e+01,4.497954292773317775e+01
4.499676343421865710e+01,4.501398394070413644e+01,4.503057442865966919e+01,4.504695491043855071e+01,4.506270537368746432e+01,4.507824583075973379e+01,4.509315626930204246e+01,4.510785670166769989e+01,4.512192711550339652e+01,4.513557751698579779e+01,4.514880790611489658e+01,4.516140827671402747e+01,4.517358863495985588e+01,4.518513897467573059e+01,4.519626930203829573e+01,4.520697961704756551e+01,4.521705991352687448e+01,4.522672019765288098e+01,4.523596046942557791e+01,4.524457072266831403e+01,4.525297096973440603e+01,4.526095120444719555e+01,4.526851142680667550e+01,4.527565163681285298e+01,4.528237183446572089e+01,4.528888202594194468e+01,4.529518221124151012e+01,4.530106238418777309e+01,4.530673255095738483e+01,4.531219271155034534e+01,4.531744286596664750e+01,4.532248301420630554e+01,4.532731315626929813e+01,4.533214329833231204e+01,4.533655342804200217e+01,4.534096355775170650e+01,4.534516368128474539e+01,4.534936380481779139e+01,4.535335392217418615e+01,4.535713403335392968e+01,4.536091414453366610e+01,4.536448424953675129e+01,4.536805435453984359e+01,4.537162445954293588e+01,4.537498455836936273e+01,4.537813465101915256e+01,4.538149474984558651e+01,4.538443483631871800e+01,4.538758492896850072e+01,4.539052501544163931e+01,4.539346510191476369e+01,4.539640518838790229e+01,4.539955528103767790e+01,4.540249536751081649e+01
4.540585546633725045e+01,4.540921556516368440e+01,4.541299567634342083e+01,4.541698579369981559e+01,4.542118591723286869e+01,4.542538604076590758e+01,4.542937615812230234e+01,4.543315626930203877e+01,4.543651636812847272e+01,4.543966646077826255e+01,4.544218653489808446e+01,4.544470660901792058e+01,4.544743668931439373e+01,4.545058678196418356e+01,4.545478690549722245e+01,4.546066707844348542e+01,4.546801729462631414e+01,4.547578752316245243e+01,4.548313773934528115e+01,4.548901791229154412e+01,4.549216800494132684e+01,4.549069796170475399e+01,4.548313773934528115e+01,4.546822730080297248e+01,4.544554663372452552e+01,4.541635577516986189e+01,4.538254478072884979e+01,4.534663372452130403e+01,4.531093267449043083e+01,4.527796170475602366e+01,4.525087090796788658e+01,4.523155033971587358e+01,4.522105003088326924e+01,4.521852995676343312e+01,4.522210006176652541e+01,4.522861025324274209e+01,4.523575046324892668e+01,4.524016059295862391e+01,4.523932056825201187e+01,4.523092032118591987e+01,4.521327980234713095e+01,4.518681902408894757e+01,4.515300802964793547e+01,4.511415688696727244e+01,4.507257566399012205e+01,4.503078443483632043e+01,4.499067325509574289e+01,4.495413218035825764e+01,4.492263125386040912e+01,4.489680049413218654e+01,4.487663990117356860e+01,4.486088943792464789e+01,4.484891908585547071e+01,4.483988882025942502e+01
4.483316862260655711e+01,4.482875849289685988e+01,4.482560840024707005e+01,4.482392835083385307e+01,4.482392835083385307e+01,4.482602841260037252e+01,4.483064854848672098e+01,4.483841877702285927e+01,4.484954910438542441e+01,4.486382952439778649e+01,4.488168004941322664e+01,4.490289067325510075e+01,4.492767140210006005e+01,4.495497220506486258e+01,4.498458307597282868e+01,4.501524397776405806e+01,4.504653489808524824e+01,4.507782581840642422e+01,4.510827671402100236e+01,4.513683755404571230e+01,4.516371834465719814e+01,4.518870907967881578e+01,4.521201976528721644e+01,4.523428042001235383e+01,4.525570105003088628e+01,4.527649166151945792e+01,4.529728227300802956e+01,4.531807288449660831e+01,4.533844348363187748e+01,4.535755404570723215e+01,4.537414453366275779e+01,4.538695491043854702e+01,4.539409512044471740e+01,4.539472513897467110e+01,4.538716491661519825e+01,4.537057442865966550e+01,4.534369363804817965e+01,4.530694255713403606e+01,4.525990117356393228e+01,4.520340951204448032e+01,4.513788758492896847e+01,4.506375540457072759e+01,4.498164298949969009e+01,4.489218035824583097e+01,4.479578752316244561e+01,4.469309450277949480e+01,4.458431130327362268e+01,4.446943792464484346e+01,4.434910438542310374e+01,4.422373069796171308e+01,4.409373687461395974e+01,4.396017294626312832e+01,4.382324891908585585e+01,4.368380481778876145e+01
4.354268066707845009e+01,4.340071649166152667e+01,4.325877331686226057e+01,4.311720815318098232e+01,4.297667201976528872e+01,4.283768993205683273e+01,4.270076590487956025e+01,4.256640395305744562e+01,4.243506609017912723e+01,4.230719332921557196e+01,4.218322668313773960e+01,4.206352316244595357e+01,4.194850277949351636e+01,4.183850154416306566e+01,4.173391846819024664e+01,4.163515256331069025e+01,4.154253983940704131e+01,4.145641420630018814e+01,4.137710327362569274e+01,4.130507115503397841e+01,4.124097726991970347e+01,4.118556294008647711e+01,4.113951068560840696e+01,4.110337492279185057e+01,4.107754626312539159e+01,4.106236071649166064e+01,4.105811859172328582e+01,4.106479678814083201e+01,4.108167288449661214e+01,4.110743854231007788e+01,4.114054811612106732e+01,4.117976466954911530e+01,4.122470809141445613e+01,4.127566915626930211e+01,4.133328128474367702e+01,4.139887881408276371e+01,4.147478974675725993e+01,4.156421247683756093e+01,4.167072760963558409e+01,4.179668931439159962e+01,4.194142557134033922e+01,4.210109326744904479e+01,4.226907720815317759e+01,4.243634712785670615e+01,4.259206670784435289e+01,4.272416059295862567e+01,4.282011241507103705e+01,4.286963187152564103e+01,4.286795182211242405e+01,4.281710932674490522e+01,4.272588264360716437e+01,4.260867819641755005e+01,4.248307350216182954e+01,4.236838912909203714e+01
4.228430265596047377e+01,4.224780358245831025e+01,4.226947621988882275e+01,4.235114762198888627e+01,4.248483755404571127e+01,4.265441754169241051e+01,4.283920197652872730e+01,4.301657319332921503e+01,4.316391352686844129e+01,4.326108338480544546e+01,4.329308832612723990e+01,4.325259913526868871e+01,4.314165287214330391e+01,4.297053983940704569e+01,4.275444348363187430e+01,4.251045830759728261e+01,4.225538480543545461e+01,4.200428042001236406e+01,4.176945151327980454e+01,4.155889932056825842e+01,4.137489400864731692e+01,4.121433378628783828e+01,4.107059505867820093e+01,4.093591599752934229e+01,4.080323409512045174e+01,4.066683508338480380e+01,4.052239283508338730e+01,4.036715626930204337e+01,4.020057936998147596e+01,4.002438418777022378e+01,3.984197282273008511e+01,3.965716738727610391e+01,3.947318097591106323e+01,3.929213465101914693e+01,3.911554045707227090e+01,3.894396541074738138e+01,3.877806053119210361e+01,3.861740580605312090e+01,3.846158122297715209e+01,3.830953675108091971e+01,3.816064237183447005e+01,3.801489808523780312e+01,3.787272390364422847e+01,3.773411982705373191e+01,3.759992588017295390e+01,3.747035206917851013e+01,3.734602841260036854e+01,3.722716491661520166e+01,3.711439159975294189e+01,3.700791846819024755e+01,3.690753551575046743e+01,3.681345274861025985e+01,3.672546016059295937e+01,3.664313773934527774e+01
3.656669549104385908e+01,3.649550339715874969e+01,3.642935145151328413e+01,3.636802964793083248e+01,3.631090796788141262e+01,3.625819641754168998e+01,3.620905497220506675e+01,3.616348363187153581e+01,3.612127239036443171e+01,3.608179122915380077e+01,3.604525015441630842e+01,3.601080914144533551e+01,3.597888820259419163e+01,3.594885731933292305e+01,3.592050648548487146e+01,3.589404570722668808e+01,3.586905497220507044e+01,3.584553428042001855e+01,3.582348363187152529e+01,3.580269302038295365e+01,3.578316244595429652e+01,3.576468190240889555e+01,3.574704138357011374e+01,3.573003088326127141e+01,3.571323038912909453e+01,3.569705991352687136e+01,3.568130945027795065e+01,3.566597899938233240e+01,3.565148857319333331e+01,3.563825818406424162e+01,3.562712785670166937e+01,3.561851760345893325e+01,3.561305744286597275e+01,3.561032736256948539e+01,3.560948733786288045e+01,3.560969734403953169e+01,3.560990735021618292e+01,3.560885731933291964e+01,3.560444718962322241e+01,3.559520691785052549e+01,3.557987646695491435e+01,3.555929586164299394e+01,3.553514515132798124e+01,3.551078443483632441e+01,3.548852378011117992e+01,3.547214329833230551e+01,3.546479308214948389e+01,3.547025324274243729e+01,3.549104385423101604e+01,3.552716491661519171e+01,3.557693638048178286e+01,3.563657813465102464e+01,3.570231006794317352e+01,3.577014206300185606e+01
3.583587399629401204e+01,3.589572575663989795e+01,3.594612723903644991e+01,3.598581840642371787e+01,3.601584928968499355e+01,3.603936998147004545e+01,3.605974058060531462e+01,3.607990117356393256e+01,3.610300185299568199e+01,3.613156269302038481e+01,3.616852378011118674e+01,3.621535515750463219e+01,3.627121680049413754e+01,3.633442865966646451e+01,3.640268066707844241e+01,3.647366275478690767e+01,3.654527486102532663e+01,3.661604694255714065e+01,3.668387893761581608e+01,3.674709079678814305e+01,3.680526250772081909e+01,3.685839407041384419e+01,3.690795552810376989e+01,3.695541692402718326e+01,3.700161828289067500e+01,3.704802964793082509e+01,3.709570105003088969e+01,3.714589252625077620e+01,3.719986411365040624e+01,3.725740580605312857e+01,3.731746757257566571e+01,3.737773934527486830e+01,3.743654107473749093e+01,3.749177269919703548e+01,3.754112415071031705e+01,3.758249536751080910e+01,3.761420630018530886e+01,3.763520691785052463e+01,3.764570722668314318e+01,3.764759728227300428e+01,3.764297714638666292e+01,3.763373687461396599e+01,3.762197652872143294e+01,3.760937615812230206e+01,3.759803582458307858e+01,3.758900555898702578e+01,3.758228536133415787e+01,3.757682520074119736e+01,3.757115503397159983e+01,3.756422483014205937e+01,3.755456454601605998e+01,3.754133415688697539e+01,3.752327362569487690e+01,3.749975293390982500e+01
3.747098208770846384e+01,3.743717109326745174e+01,3.739915997529339364e+01,3.735736874613959912e+01,3.731242742433601478e+01,3.726496602841260852e+01,3.721540457072266861e+01,3.716416306361951882e+01,3.711145151327981040e+01,3.705705991352687789e+01,3.700035824583076050e+01,3.694155651636813076e+01,3.688023471278567200e+01,3.681576281655343053e+01,3.674772081531809675e+01,3.667526868437307286e+01,3.659861642989500297e+01,3.651818406423718955e+01,3.643565163681285668e+01,3.635206917850525343e+01,3.626890673255095976e+01,3.618826436071649510e+01,3.611182211241507645e+01,3.604231006794318404e+01,3.598014823965410613e+01,3.592533662754786405e+01,3.587556516368128712e+01,3.582831377393452499e+01,3.578064237183446750e+01,3.572961087090796894e+01,3.567185917232859538e+01,3.560381717109326871e+01,3.552338480543546240e+01,3.543098208770847179e+01,3.532891908585546759e+01,3.522076590487955627e+01,3.511051266213712552e+01,3.500193946880791174e+01,3.489903644224830970e+01,3.480558369363805582e+01,3.472389129092032789e+01,3.465458925262507250e+01,3.459578752316244277e+01,3.454412600370599762e+01,3.449540457072267685e+01,3.444584311303273694e+01,3.439250154416306771e+01,3.433180975911056976e+01,3.426103767757875573e+01,3.417871525633106700e+01,3.408526250772082022e+01,3.398214947498455984e+01,3.387189623224212909e+01,3.375660284126004029e+01
3.363773934527486631e+01,3.351719579987646824e+01,3.339728227300803098e+01,3.327946880790612028e+01,3.316459542927733395e+01,3.305245213094502787e+01,3.294345892526251163e+01,3.283761581222977810e+01,3.273534280420012976e+01,3.263684990735021785e+01,3.254318715256331274e+01,3.245456454601605856e+01,3.237224212476838403e+01,3.229789993823347771e+01,3.223258801729463130e+01,3.217777640518839632e+01,3.213472513897467309e+01,3.210385423100679958e+01,3.208558369363804985e+01,3.207991352686843811e+01,3.208642371834465479e+01,3.210343421865349001e+01,3.212926497838171969e+01,3.216244595429277808e+01,3.220108709079678988e+01,3.224329833230388687e+01,3.228760963557752461e+01,3.233213094502779938e+01,3.237581222977146211e+01,3.241823347745522454e+01,3.245834465719580209e+01,3.249635577516986018e+01,3.253184681902408926e+01,3.256439777640519395e+01,3.259442865966646252e+01,3.262172946263125795e+01,3.264672019765287558e+01,3.266940086473131544e+01,3.268998147004324295e+01,3.270888202594193928e+01,3.272631253860407696e+01,3.274269302038295137e+01,3.275886349598518166e+01,3.277482396541074650e+01,3.279141445336627925e+01,3.280884496602841693e+01,3.282753551575046913e+01,3.284811612106238243e+01,3.287079678814082939e+01,3.289557751698579580e+01,3.292245830759728875e+01,3.295185917232860362e+01,3.298336009882643793e+01,3.301675108091414756e+01
3.305182211241507417e+01,3.308836318715256652e+01,3.312574428659666381e+01,3.316375540457072901e+01,3.320218653489808958e+01,3.324040765904879180e+01,3.327799876466955453e+01,3.331453983940704688e+01,3.334961087090797349e+01,3.338342186534898559e+01,3.341576281655343195e+01,3.344663372452130545e+01,3.347645460160592989e+01,3.350522544780729106e+01,3.353378628783200099e+01,3.356297714638666463e+01,3.359321803582459154e+01,3.362450895614577462e+01,3.365621988882026727e+01,3.368709079678814078e+01,3.371628165534280441e+01,3.374232242124768533e+01,3.376311303273626407e+01,3.377676343421865823e+01,3.378180358245831627e+01,3.377781346510192151e+01,3.376563310685608599e+01,3.374736256948733626e+01,3.372552192711550845e+01,3.370284126003706149e+01,3.368268066707844355e+01,3.366798023471278611e+01,3.366189005558987191e+01,3.366567016676961543e+01,3.367890055589870713e+01,3.369948116121062753e+01,3.372447189623224517e+01,3.375093267449042855e+01,3.377655342804199989e+01,3.379902408894379562e+01,3.381624459542928207e+01,3.382842495367511049e+01,3.383745521927115618e+01,3.384753551575046515e+01,3.386412600370599790e+01,3.389268684373069362e+01,3.393825818406424588e+01,3.400609017912292131e+01,3.409996294008647055e+01,3.422323656578135598e+01,3.437780111179740317e+01,3.456323656578135228e+01,3.477744286596665546e+01,3.501768993205682534e+01
3.528103767757875886e+01,3.556328597899938160e+01,3.586065472513897845e+01,3.616789376158121883e+01,3.647996294008648022e+01,3.679182211241507616e+01,3.709822112415071160e+01,3.739411982705373561e+01,3.767363804817789230e+01,3.792963557751699000e+01,3.815497220506485831e+01,3.834208770846201730e+01,3.848405188387894782e+01,3.857414453366275353e+01,3.860711550339716069e+01,3.857981470043237238e+01,3.849392217418159845e+01,3.835552810376776023e+01,3.817618282890673953e+01,3.797226683137739656e+01,3.776289067325509308e+01,3.756947498455836865e+01,3.741197035206918287e+01,3.730864731315627836e+01,3.727084620135887150e+01,3.730150710315009377e+01,3.739369981470043314e+01,3.753209388511427136e+01,3.769463866584311518e+01,3.786033353922174172e+01,3.801426806670784941e+01,3.815161210623842436e+01,3.828475602223595331e+01,3.843890055589871224e+01,3.864470660901791632e+01,3.894081531809759156e+01,3.937170599135269100e+01,3.999611735639284404e+01,4.089452378011118583e+01,4.214989870290303742e+01,4.382324891908585585e+01,4.592478072884497209e+01,4.839403335392217542e+01,5.111508338480543756e+01,5.394218653489808446e+01,5.672413835701050289e+01,5.932296479308214998e+01,6.161140210006176687e+01,6.347226683137740366e+01,6.480160592958615950e+01,6.551772699197036331e+01,6.557442865966646650e+01,6.496541074737493204e+01,6.373477455219271803e+01
6.195854231006794777e+01,5.975641754169240727e+01,5.726385423100679617e+01,5.462449660284126196e+01,5.197631871525633329e+01,4.944301420630019095e+01,4.712937615812229808e+01,4.511562693020383108e+01,4.345006794317480825e+01,4.214868066707844463e+01,4.119630895614577071e+01,4.055313773934527433e+01,4.016363928350833845e+01,3.996360840024706818e+01,3.988641012970969513e+01,3.987147869054972915e+01,3.987175169857937362e+01,3.985803829524397912e+01,3.982086720197653307e+01,3.976889067325510041e+01,3.972529339098209533e+01,3.972382334774552248e+01,3.980249166151946838e+01,3.999540333539221137e+01,4.032570105003087946e+01,4.080132303891291912e+01,4.141392365657813457e+01,4.213887337862878724e+01,4.293710685608400723e+01,4.376150710315009462e+01,4.456499073502161679e+01,4.531156269302038453e+01,4.598169240271772651e+01,4.656718962322421618e+01,4.706973440395306341e+01,4.749982705373687963e+01,4.787258801729462476e+01,4.820754786905497724e+01,4.850911673872760588e+01,4.874516368128474397e+01,4.886696726374305655e+01,4.883126621371217624e+01,4.864562075355158299e+01,4.842007411982705634e+01,4.831906114885732251e+01,4.850281655342804044e+01,4.906794317479926804e+01,4.994261890055590669e+01,5.093426806670785112e+01,5.185409512044472535e+01,5.263510809141445890e+01,5.363536751080914655e+01,5.580200123533045797e+01,6.037866584311303342e+01
6.842001235330451436e+01,8.054996911673873683e+01,9.717405806053119477e+01,1.181326744904261972e+02,1.415777640518838894e+02,1.642899320568251937e+02,1.839654107473749036e+02,2.005558987029030220e+02,2.151471278567016725e+02,2.278063001852995910e+02,2.363724521309450495e+02,2.377857936998146897e+02,2.308177887584928953e+02,2.169573810994441203e+02,1.986406423718345025e+02,1.777996294008647453e+02,1.562214947498456183e+02,1.359012970969734226e+02,1.181998764669549047e+02,1.034175416924027360e+02,9.124768375540458010e+01,8.122198888202593992e+01,7.290784434836318439e+01,6.604274243360099206e+01,6.044922791846819621e+01,5.593388511426806531e+01,5.223672637430512822e+01,4.905450277949352511e+01,4.615599752933909627e+01,4.347232859789993853e+01,4.104518221124151012e+01,3.893598517603459186e+01,3.714841260037060522e+01,3.559079678814082826e+01,3.414364422483014749e+01,3.274983323038912886e+01,3.143645460160593075e+01,3.029213094502780024e+01,2.940989499691167808e+01,2.882481778875849798e+01,2.850791846819024400e+01,2.839136504014824425e+01,2.839577516985793793e+01,2.845121680049414081e+01,2.850833848054354647e+01,2.853710932674490763e+01,2.852576899320568415e+01,2.847998764669549487e+01,2.841929586164299337e+01,2.836700432365658031e+01,2.834663372452131114e+01,2.837918468190241228e+01,2.847767757875231709e+01,2.864526250772081539e+01
2.887332921556516752e+01,2.914087708462013993e+01,2.941997529339098350e+01,2.968059295861643321e+01,2.989584928968499256e+01,3.004264360716492277e+01,3.010522544780728893e+01,3.007792464484250061e+01,2.996599135268684932e+01,2.978601605929586782e+01,2.956256948733786771e+01,2.932358245830759813e+01,2.909845583693638460e+01,2.891470043236566312e+01,2.879646695491044284e+01,2.876076590487955542e+01,2.881557751698579750e+01,2.895859172328598063e+01,2.917867819641754323e+01,2.945966646077826212e+01,2.978286596664608510e+01,3.012832612723903836e+01,3.047693638048178499e+01,3.081294626312539009e+01,3.112648548486719946e+01,3.141461395923409583e+01,3.168069178505250605e+01,3.193311920938850790e+01,3.218176652254478398e+01,3.243797405806054002e+01,3.271224212476838034e+01,3.301360098826436484e+01,3.334856084002471022e+01,3.371943174799259424e+01,3.412369363804818079e+01,3.455504632489191152e+01,3.500613959234095063e+01,3.546773316862260828e+01,3.593205682520073907e+01,3.639092032118591646e+01,3.683718344657195587e+01,3.726538604076591099e+01,3.767279802347128026e+01,3.805836936380482172e+01,3.842231006794317238e+01,3.876567016676961686e+01,3.908823965410746837e+01,3.939027053736874961e+01,3.967113279802347847e+01,3.993017541692402972e+01,4.016615935762817458e+01,4.037750957381099681e+01,4.056265101914762283e+01,4.072059666460778260e+01
4.085115750463249640e+01,4.095504756022236137e+01,4.103384187770228664e+01,4.109003743051266611e+01,4.112701111797406384e+01,4.114892736256949490e+01,4.116037479925880405e+01,4.116625497220507413e+01,4.117202594193947363e+01,4.118379678814082467e+01,4.120784249536750821e+01,4.124971352686844028e+01,4.131326349598518277e+01,4.140023335392218229e+01,4.151070290302656218e+01,4.164332180358245949e+01,4.179492526250771789e+01,4.196030512662137113e+01,4.213280420012353744e+01,4.230608029647931545e+01,4.247658431130327727e+01,4.264517726991971358e+01,4.281633230389129352e+01,4.299687461395923549e+01,4.319543545398394713e+01,4.342171710932674955e+01,4.368527486102532720e+01,4.399461395923410123e+01,4.435204447189623522e+01,4.475105620753551960e+01,4.517715873996294107e+01,4.560956145768994219e+01,4.602390364422483060e+01,4.639477455219272173e+01,4.669697344039531117e+01,4.690739962940087082e+01,4.701009264978382163e+01,4.699896232242125649e+01,4.687883878937616089e+01,4.666463248919085771e+01,4.637671402100062323e+01,4.603818406423718557e+01,4.567193329215565711e+01,4.530001235330451692e+01,4.494069178505250761e+01,4.460510191476220854e+01,4.429639283508338821e+01,4.400952439777640990e+01,4.373462631253860877e+01,4.346098826436072216e+01,4.317764793082150021e+01,4.287589005558987054e+01,4.254882643607165704e+01,4.219273996294008811e+01
4.180813465101915227e+01,4.140008214947498288e+01,4.097640518838790058e+01,4.054524150710314956e+01,4.011363681284743876e+01,3.968703026559605007e+01,3.926934898085237791e+01,3.886332303891290962e+01,3.847019147621988822e+01,3.808903026559604399e+01,3.771752933909821337e+01,3.735274861025324356e+01,3.699216800494132684e+01,3.663410747374923915e+01,3.627688696726374218e+01,3.591924644842495695e+01,3.556013588634959888e+01,3.519808523780111642e+01,3.483267449042619290e+01,3.446264360716491382e+01,3.408673255095737886e+01,3.370305126621371272e+01,3.330886967263743514e+01,3.290145768993205877e+01,3.247745521927115675e+01,3.203350216182829513e+01,3.156602841260037806e+01,3.107188387893761572e+01,3.054791846819024670e+01,2.999119209388511820e+01,2.939939468807906309e+01,2.877042618900556192e+01,2.810344657195800266e+01,2.739740580605312203e+01,2.665293390982088084e+01,2.587087090796788758e+01,2.505331686226065813e+01,2.420342186534898588e+01,2.332538604076590616e+01,2.242466954910438659e+01,2.150799258801729863e+01,2.058186534898085540e+01,1.965237801111797467e+01,1.872625077208153499e+01,1.781062384187770675e+01,1.691179740580605539e+01,1.603817171093267646e+01,1.518974675725756640e+01,1.437702285361334553e+01,1.360630018529957042e+01,1.288387893761581537e+01,1.221815935762816885e+01,1.161754169240272105e+01,1.109252625077208521e+01
1.064941321803582852e+01,1.029240271772699700e+01,1.002989499691167730e+01,9.861890055589874748e+00,9.788387893761584024e+00,9.803088326127241459e+00,9.899691167387278057e+00,1.006769610870908060e+01,1.029660284126003766e+01,1.057591105620753780e+01,1.089512044471896246e+01,1.124373069796170732e+01,1.161334156886967506e+01,1.200185299567634623e+01,1.240926497838171905e+01,1.283137739345275108e+01,1.327449042618900776e+01,1.373650401482396610e+01,1.422371834465719864e+01,1.473613341568870005e+01,1.527584928968499334e+01,1.584286596664607849e+01,1.643298332303891485e+01,1.703990117356392986e+01,1.766361951822112530e+01,1.829363804817788974e+01,1.892575663990117363e+01,1.955577516985793807e+01,2.017739345274861051e+01,2.078725138974676057e+01,2.138912909203212109e+01,2.198617665225447837e+01,2.258343421865349043e+01,2.318636195182211424e+01,2.380084002470660920e+01,2.443337862878320266e+01,2.508838789376158118e+01,2.576565781346510420e+01,2.645909820877085039e+01,2.715694873378629026e+01,2.784429894996911869e+01,2.850434836318715170e+01,2.912050648548487075e+01,2.967555281037677872e+01,3.015478690549722529e+01,3.054896849907350287e+01,3.085746757257566486e+01,3.108826436071649724e+01,3.125626930203829801e+01,3.137933292155651799e+01,3.147635577516986416e+01,3.156602841260037806e+01,3.166620135886349985e+01,3.179010500308833187e+01
3.194424953675108725e+01,3.212632489190858820e+01,3.232709079678814135e+01,3.253373687461395747e+01,3.273324274243359611e+01,3.291300802964793348e+01,3.306148239654108067e+01,3.316963557751699199e+01,3.323263743051266061e+01,3.325132798023471281e+01,3.323158739962940444e+01,3.318244595429278121e+01,3.311272390364423046e+01,3.303061148857320006e+01,3.294345892526251163e+01,3.285693638048178400e+01,3.277587399629400977e+01,3.270216182828907137e+01,3.263579987646695457e+01,3.257510809141445662e+01,3.251777640518839263e+01,3.246296479308215766e+01,3.241067325509573749e+01,3.236153180975911425e+01,3.231596046942556910e+01,3.227542927733168909e+01,3.224182828906732823e+01,3.221746757257566429e+01,3.220444718962322384e+01,3.220486720197653341e+01,3.221956763434219084e+01,3.224896849907350571e+01,3.229327980234713635e+01,3.235292155651637813e+01,3.242747374922792147e+01,3.251672637430513646e+01,3.261983940704138973e+01,3.273639283508338593e+01,3.286575663990117846e+01,3.300730080296479940e+01,3.316102532427424876e+01,3.332567016676961202e+01,3.350123533045089630e+01,3.368646077825818708e+01,3.388113650401482602e+01,3.408421247683755695e+01,3.429484867201976783e+01,3.451220506485485373e+01,3.473544163063620260e+01,3.496350833848054407e+01,3.519556516368128740e+01,3.543035206917850388e+01,3.566702903026560278e+01,3.590454601605929952e+01
3.614206300185299625e+01,3.637852995676343681e+01,3.661310685608400206e+01,3.684495367510809416e+01,3.707323038912909396e+01,3.729688696726374530e+01,3.751550339715873861e+01,3.772823965410748315e+01,3.793446571957999680e+01,3.813376158122298420e+01,3.832528721432983332e+01,3.850883261272390712e+01,3.868397776405188893e+01,3.885051266213712040e+01,3.900822730080296452e+01,3.915670166769611882e+01,3.929593576281655487e+01,3.942599258801729434e+01,3.954678814082767246e+01,3.965844842495368283e+01,3.976105744286596888e+01,3.985480420012353164e+01,3.993991970352069387e+01,4.001669796170476445e+01,4.008545398394070247e+01,4.014656578134650999e+01,4.020047436689314679e+01,4.024762075355157265e+01,4.028848795552811168e+01,4.032357998764670270e+01,4.035342186534898445e+01,4.037855960469426009e+01,4.039958122297714738e+01,4.041701173563928506e+01,4.043141815935763361e+01,4.044340951204448231e+01,4.045353180975911300e+01,4.046235206917851457e+01,4.047041630636195464e+01,4.047831253860407941e+01,4.048652378011118458e+01,4.049555404570722317e+01,4.050586534898086200e+01,4.051785670166769648e+01,4.053194811612106463e+01,4.054843360098826821e+01,4.056762816553428053e+01,4.058978381717109585e+01,4.061513156269302272e+01,4.064383940704139064e+01,4.067609635577517224e+01,4.071198641136504648e+01,4.075159357628165679e+01,4.079491785052501740e+01
