1.254790271087315716e+02,1.254657347893034114e+02,1.254516859964118680e+02,1.254368807300569273e+02,1.254213910353303447e+02,1.254051808896862354e+02,1.253882502931246137e+02,1.253706712907372633e+02,1.253523718374323579e+02,1.253334600008475803e+02,1.253138637358911609e+02,1.252936190651089845e+02,1.252727620110469218e+02,1.252512925737049443e+02,1.252292107530830947e+02,1.252065525717272578e+02,1.251833180296373627e+02,1.251595071268134660e+02,1.251351919083473234e+02,1.251103003291471651e+02,1.250849404568506316e+02,1.250590762689118378e+02,1.250327077653307697e+02,1.250059069911991827e+02,1.249786379239712346e+02,1.249510446538303938e+02,1.249229470680472929e+02,1.248941290313466794e+02,1.248653109946460660e+02,1.248361327324866750e+02,1.248065942448685490e+02,1.247766955317916597e+02,1.247464365932560071e+02,1.247158174292615911e+02,1.246851982652671893e+02,1.246542188758140242e+02,1.246228792609021099e+02,1.245915396459901814e+02,1.245598398056195037e+02,1.245281399652488261e+02,1.244960798994193851e+02,1.244643800590487217e+02,1.244319597677605174e+02,1.243998997019310906e+02,1.243674794106428863e+02,1.243354193448134595e+02,1.243029990535252551e+02,1.242705787622370792e+02,1.242381584709488607e+02,1.242060984051194197e+02,1.241736781138312438e+02,1.241416180480018028e+02,1.241095579821723618e+02,1.240778581418016842e+02
1.240461583014309923e+02,1.240144584610603289e+02,1.239831188461484146e+02,1.239517792312364861e+02,1.239207998417833352e+02,1.238901806777889334e+02,1.238595615137945032e+02,1.238296628007176281e+02,1.237997640876407388e+02,1.237702256000225844e+02,1.237406871124044727e+02,1.237118690757038308e+02,1.236834112644619950e+02,1.236553136786788940e+02,1.236275763183545280e+02,1.236001991834889537e+02,1.235731822740821286e+02,1.235468858155928018e+02,1.235209495825622525e+02,1.234953735749904666e+02,1.234701577928774157e+02,1.234456624616818914e+02,1.234215273559451305e+02,1.233981127011258678e+02,1.233754184972241461e+02,1.233527242933224102e+02,1.233311107657969359e+02,1.233098574637302391e+02,1.232893246125810549e+02,1.232691519868906198e+02,1.232496998121176972e+02,1.232309680882623013e+02,1.232129568153244179e+02,1.231953057678452836e+02,1.231787353967424252e+02,1.231625252510983302e+02,1.231470355563717476e+02,1.231322663125626775e+02,1.231185777451298833e+02,1.231052494031558524e+02,1.230926415120993340e+02,1.230807540719603423e+02,1.230695870827388347e+02,1.230591405444348680e+02,1.230497746825071630e+02,1.230411292714969846e+02,1.230328440859455554e+02,1.230256395767704021e+02,1.230191555185127470e+02,1.230137521366313962e+02,1.230087089802087803e+02,1.230047465001624403e+02,1.230015044710336412e+02,1.229993431182810752e+02
1.229979022164460503e+02,1.229971817655285378e+02,1.229971817655285378e+02,1.229982624419047994e+02,1.230000635691986020e+02,1.230029453728686804e+02,1.230061874019974795e+02,1.230108703329613320e+02,1.230159134893839337e+02,1.230220373221828254e+02,1.230292418313579788e+02,1.230371667914506446e+02,1.230458122024608372e+02,1.230551780643885422e+02,1.230656246026925089e+02,1.230771518173727515e+02,1.230893994829705065e+02,1.231023675994858024e+02,1.231164163923773316e+02,1.231311856361864159e+02,1.231466753309129984e+02,1.231632457020158427e+02,1.231808967494949769e+02,1.231989080224328603e+02,1.232179999717470054e+02,1.232381725974374405e+02,1.232590656740453881e+02,1.232806792015708481e+02,1.233033734054725983e+02,1.233267880602918467e+02,1.233509231660286076e+02,1.233761389481416586e+02,1.234020751811722221e+02,1.234287318651202696e+02,1.234564692254446214e+02,1.234845668112277366e+02,1.235141052988458625e+02,1.235440040119227660e+02,1.235749834013759170e+02,1.236066832417465804e+02,1.236391035330347847e+02,1.236722442752405016e+02,1.237061054683637167e+02,1.237410473378632219e+02,1.237763494328214762e+02,1.238127322041559921e+02,1.238498354264080632e+02,1.238876590995776041e+02,1.239262032236646860e+02,1.239651075732105170e+02,1.240050925991326380e+02,1.240457980759722574e+02,1.240868637782706259e+02,1.241290101569452702e+02
1.241715167610786921e+02,1.242147438161296122e+02,1.242586913220980591e+02,1.243029990535252551e+02,1.243480272358699636e+02,1.243937758691322131e+02,1.244398847278531832e+02,1.244867140374916943e+02,1.245339035725889545e+02,1.245818135586037272e+02,1.246300837700772632e+02,1.246790744324683118e+02,1.247280650948593603e+02,1.247781364336266847e+02,1.248282077723940233e+02,1.248789995620788460e+02,1.249297913517636829e+02,1.249813396149119313e+02,1.250331760584271450e+02,1.250854087499470211e+02,1.251379656443797757e+02,1.251908467417253945e+02,1.252440880645298051e+02,1.252976175677011952e+02,1.253513992286937082e+02,1.254055050925991424e+02,1.254598270917798004e+02,1.255144012487815814e+02,1.255692275636045139e+02,1.256242339911568138e+02,1.256794205314384953e+02,1.257347871844495444e+02,1.257902979276441187e+02,1.258459887835680604e+02,1.259017516845837434e+02,1.259576586757829659e+02,1.260136737346197862e+02,1.260697608385483477e+02,1.261259199875686932e+02,1.261821511816807657e+02,1.262383823757928383e+02,1.262946856149966806e+02,1.263509888542004944e+02,1.264072920934043367e+02,1.264635953326081648e+02,1.265198625492661222e+02,1.265760937433781947e+02,1.266322889149444251e+02,1.266884480639647421e+02,1.267444991453474330e+02,1.268004781816383826e+02,1.268563491502916918e+02,1.269121480738532739e+02,1.269678029072313450e+02
1.270233136504259051e+02,1.270787163259828532e+02,1.271339388888103912e+02,1.271890173614544608e+02,1.272438796988232639e+02,1.272985979460085417e+02,1.273531360804644805e+02,1.274074580796451386e+02,1.274615639435505443e+02,1.275154896947265684e+02,1.275691632880814552e+02,1.276225847236152475e+02,1.276757900238737733e+02,1.277287791888570183e+02,1.277814801734732697e+02,1.278339290002683981e+02,1.278861256692423893e+02,1.279380341578493727e+02,1.279896544660893483e+02,1.280409865939623444e+02,1.280919945189224336e+02,1.281427502860613856e+02,1.281931458277415743e+02,1.282432243710181012e+02,1.282929715068725329e+02,1.283423764285411437e+02,1.283914355337693678e+02,1.284401344135388285e+02,1.284884694655949318e+02,1.285364316843012205e+02,1.285840163867267449e+02,1.286312160081368461e+02,1.286780309087569947e+02,1.287244459591179293e+02,1.287704683637288099e+02,1.288160837135712882e+02,1.288612992131545809e+02,1.289061040557148772e+02,1.289504838322338287e+02,1.289944673607481320e+02,1.290380546412578155e+02,1.290812096512169944e+02,1.291239323906256402e+02,1.291662588820296946e+02,1.292081531028832160e+02,1.292496150531862327e+02,1.292906807554846011e+02,1.293313141872324650e+02,1.293715513709757090e+02,1.294113202616225635e+02,1.294506929042647982e+02,1.294896692989023848e+02,1.295282134229894382e+02,1.295663612990719002e+02
1.296040769046038292e+02,1.296414322846769949e+02,1.296783553941996558e+02,1.297149182782635535e+02,1.297510849143228313e+02,1.297868913249233742e+02,1.298223014875192405e+02,1.298573874472022567e+02,1.298921131814265095e+02,1.299265507352837403e+02,1.299606280636821793e+02,1.299944172117136816e+02,1.300279181793781333e+02,1.300611669892214763e+02,1.300941636412436822e+02,1.301269081354447508e+02,1.301594725169164519e+02,1.301917847405670443e+02,1.302239528740341257e+02,1.302559769173176676e+02,1.302878208478718705e+02,1.303195927333342752e+02,1.303512205286131973e+02,1.303828123013462346e+02,1.304143680515334154e+02,1.304458517566288265e+02,1.304773714842701509e+02,1.305088912119114468e+02,1.305404469620985992e+02,1.305720747573775498e+02,1.306038106202940980e+02,1.306356905733941858e+02,1.306677146166777277e+02,1.306999547952365219e+02,1.307323750865247121e+02,1.307650835581799527e+02,1.307981162327480149e+02,1.308314370876830992e+02,1.308651541906228317e+02,1.308992675415671840e+02,1.309338131630620694e+02,1.309688631001991723e+02,1.310044173529785780e+02,1.310405479664919710e+02,1.310772549407394081e+02,1.311146103208125737e+02,1.311526141067114679e+02,1.311913023209820608e+02,1.312307470087160652e+02,1.312709121473675111e+02,1.313118697820282819e+02,1.313536559352441770e+02,1.313963066295611100e+02,1.314398218649790238e+02
1.314842376640438317e+02,1.315295900493014187e+02,1.315759150432976696e+02,1.316232846911243257e+02,1.316716629702355021e+02,1.317211219257229402e+02,1.317717336026783812e+02,1.318234980011018536e+02,1.318764871660851270e+02,1.319306650750822882e+02,1.319861397957309919e+02,1.320429113280311810e+02,1.321009796719829126e+02,1.321603808501320714e+02,1.322211148624786290e+02,1.322830736413849593e+02,1.323464733221262861e+02,1.324109536792439599e+02,1.324768749381966302e+02,1.325438768735255337e+02,1.326119594852307557e+02,1.326814829987710027e+02,1.327517269632287480e+02,1.328226913786040200e+02,1.328947364703555536e+02,1.329675020130246139e+02,1.330406277811524376e+02,1.331141137747389962e+02,1.331883202192431099e+02,1.332625266637471952e+02,1.333367331082512806e+02,1.334109395527553943e+02,1.334851459972594512e+02,1.335586319908460382e+02,1.336317577589738335e+02,1.337038028507253955e+02,1.337751274915594308e+02,1.338457316814759395e+02,1.339145347440986598e+02,1.339822571303450900e+02,1.340481783892977603e+02,1.341122985209566139e+02,1.341742572998629726e+02,1.342340547260167511e+02,1.342913305739592147e+02,1.343464450691491265e+02,1.343986777606690168e+02,1.344480286485188287e+02,1.344944977326985622e+02,1.345380850132082742e+02,1.345787904900478793e+02,1.346158937122999362e+02,1.346504753563406496e+02,1.346814547457938431e+02
1.347095523315769299e+02,1.347347681136899666e+02,1.347567418666741901e+02,1.347761940414470985e+02,1.347927644125499853e+02,1.348071734309002636e+02,1.348190608710392837e+02,1.348291471838844870e+02,1.348370721439771671e+02,1.348435562022348222e+02,1.348482391331986605e+02,1.348518413877862372e+02,1.348543629659975238e+02,1.348558038678325772e+02,1.348565243187501039e+02,1.348561640932913122e+02,1.348558038678325772e+02,1.348547231914562872e+02,1.348536425150800255e+02,1.348522016132449721e+02,1.348504004859512122e+02,1.348485993586574239e+02,1.348467982313636355e+02,1.348442766531522921e+02,1.348417550749410339e+02,1.348385130458121921e+02,1.348349107912246438e+02,1.348305880857195120e+02,1.348255449292969104e+02,1.348194210964980471e+02,1.348125768127816286e+02,1.348042916272302421e+02,1.347949257653025086e+02,1.347844792269985419e+02,1.347718713359420235e+02,1.347574623175917168e+02,1.347408919464888584e+02,1.347214397717159216e+02,1.346987455678141998e+02,1.346724491093248730e+02,1.346421901707892346e+02,1.346076085267485212e+02,1.345683439517439126e+02,1.345243964457754657e+02,1.344750455579256538e+02,1.344210117391120036e+02,1.343619347638757233e+02,1.342978146322168698e+02,1.342290115695941211e+02,1.341555255760075624e+02,1.340780771023746638e+02,1.339981070505304217e+02,1.339166960968512115e+02,1.338352851431719444e+02
1.337556753167864940e+02,1.336796677449886204e+02,1.336097840059896384e+02,1.335474650016245448e+02,1.334945118591871562e+02,1.334527257059712610e+02,1.334224667674356226e+02,1.334048157199564741e+02,1.334008532399101625e+02,1.334102191018378676e+02,1.334332735311983527e+02,1.334700165279916462e+02,1.335193674158414581e+02,1.335798852929127349e+02,1.336508497082880069e+02,1.337293788582971956e+02,1.338140318411052476e+02,1.339015666275833780e+02,1.339901820904377701e+02,1.340773566514571371e+02,1.341620096342652175e+02,1.342441410388619829e+02,1.343244713161649315e+02,1.344044413680091452e+02,1.344865727726059106e+02,1.345737473336252492e+02,1.346695673056548515e+02,1.347783553941996502e+02,1.349044343047648624e+02,1.350521267428555348e+02,1.352264758648942404e+02,1.354314441509274047e+02,1.356713543064600458e+02,1.359508892624560303e+02,1.362722103716679101e+02,1.366378392123070000e+02,1.370474155589145084e+02,1.374984178332791771e+02,1.379858028789783759e+02,1.385027264122956581e+02,1.390409032476797222e+02,1.395895266213677246e+02,1.401381499950557270e+02,1.406752461540634727e+02,1.411889276582519699e+02,1.416687479693172804e+02,1.421046207744141157e+02,1.424868199861560356e+02,1.428070604189916537e+02,1.430584977892045231e+02,1.432360889403720705e+02,1.433373122942829809e+02,1.433621678509372828e+02,1.433142578649224959e+02
1.432000663944963321e+02,1.430300399779626730e+02,1.428149853790843054e+02,1.425682309398352743e+02,1.423013038748958081e+02,1.420260916244049270e+02,1.417523202757490424e+02,1.414889954653971529e+02,1.412426012516068567e+02,1.410167398889657875e+02,1.408135727302264115e+02,1.406316588735537891e+02,1.404673960643602868e+02,1.403146604698470128e+02,1.401630055517100004e+02,1.399962211643052115e+02,1.397937744564833622e+02,1.395315303225077344e+02,1.391871547839353411e+02,1.387429967932870909e+02,1.381886098122589601e+02,1.375236336153922139e+02,1.367581545155320839e+02,1.359159473929565252e+02,1.350344756953763863e+02,1.341616494088064542e+02,1.333500614502252972e+02,1.326490627074827842e+02,1.320992145672350091e+02,1.317321088022150377e+02,1.315689266693977686e+02,1.316209432256424066e+02,1.318911843648024558e+02,1.323763720352031896e+02,1.330726878469818644e+02,1.339862196103914300e+02,1.351371399511223501e+02,1.365596702877565747e+02,1.383049626354377040e+02,1.404360564494483583e+02,1.430224752433287847e+02,1.461380652361242483e+02,1.498498283631637662e+02,1.542081961886734121e+02,1.592358629165548507e+02,1.649220217830453805e+02,1.712079560383675130e+02,1.779837969176001877e+02,1.850910452188899171e+02,1.923171679215697338e+02,1.994028026953340031e+02,2.060453601548263123e+02,2.119386486601025013e+02,2.167512607891056291e+02
2.201806071564791125e+02,2.219745299410924986e+02,2.219349051406291835e+02,2.199572673720493015e+02,2.160308098715902076e+02,2.102563957677040207e+02,2.028321490627074581e+02,1.940498523781943447e+02,1.842841401912726553e+02,1.739420672703386117e+02,1.634515814603963690e+02,1.532226193335122559e+02,1.436164870248202305e+02,1.349253273813727958e+02,1.273476966760372449e+02,1.209809998728615881e+02,1.158272542344149372e+02,1.118064176637613230e+02,1.087729590755625821e+02,1.065413623585585299e+02,1.049109819322210910e+02,1.036898176270324257e+02,1.027193702411391598e+02,1.018886903332438720e+02,1.011336577716876803e+02,1.004366215089915073e+02,9.981415191625816874e+01,9.930623401940978567e+01,9.896041757900238167e+01,9.881560694458178773e+01,9.888945316362712390e+01,9.916970857054060673e+01,9.961674836485894957e+01,1.001671728658407261e+02,1.007442540507705928e+02,1.012662207405105335e+02,1.016563449123451477e+02,1.018537484637443669e+02,1.018195270451623742e+02,1.015385511873313646e+02,1.010205469776377640e+02,1.002925313254884117e+02,9.939593015864046777e+01,9.837937391402618914e+01,9.729329415587167773e+01,9.618415996835666704e+01,9.509411773015582980e+01,9.405666840893357517e+01,9.309882891409682770e+01,9.223933096950091226e+01,9.149726652446001651e+01,9.087767873539674213e+01,9.038416985689865157e+01,9.002394439814095506e+01
8.979340010453600485e+01,8.968893472149626689e+01,8.969974148525901114e+01,8.981501363206146493e+01,9.002394439814095506e+01,9.030492025597196459e+01,9.064353218720424366e+01,9.102537117348738605e+01,9.142882368729604536e+01,9.183948071027984383e+01,9.224293322408850315e+01,9.262693356312421145e+01,9.297923406178925632e+01,9.329263021090847019e+01,9.356171862860048805e+01,9.378289706027771899e+01,9.395436437864638890e+01,9.407684103462401026e+01,9.415356905733942483e+01,9.418815070138015244e+01,9.418634957408636410e+01,9.415356905733942483e+01,9.409629320939691866e+01,9.402100608851658592e+01,9.393455197841471715e+01,9.384269448643149758e+01,9.375119721990702715e+01,9.366438288434643766e+01,9.358657418525476146e+01,9.352101315176086871e+01,9.347022136207603182e+01,9.343672039441156585e+01,9.342195115060249577e+01,9.342699430702509744e+01,9.345257031459689756e+01,9.349903939877664527e+01,9.356712201048183886e+01,9.365645792425375760e+01,9.376740736555113642e+01,9.389961010891522619e+01,9.405342637980476184e+01,9.422849595276100843e+01,9.442517905324274352e+01,9.464275523033238358e+01,9.488230516040626128e+01,9.514310839254684993e+01,9.542588537767166201e+01,9.573063611578068333e+01,9.605700038141517894e+01,9.640569862549264712e+01,9.677637062255433875e+01,9.716829592168275553e+01,9.758183474833660398e+01,9.801590642613965088e+01
9.846979050417438373e+01,9.894276653152326162e+01,9.943339360635127377e+01,9.994059105228213014e+01,1.004629179674808199e+02,1.009992936755710673e+02,1.015479170492590697e+02,1.021077074121685655e+02,1.026765034115470030e+02,1.032532243710180779e+02,1.038360691632880730e+02,1.044235968865219064e+02,1.050140064134258040e+02,1.056058568421647408e+02,1.061977072709036634e+02,1.067884770232663243e+02,1.073763649719589068e+02,1.079610108915226903e+02,1.085406136546638578e+02,1.091148130359236461e+02,1.096828885843845711e+02,1.102433993982115794e+02,1.107967057028634486e+02,1.113413665965050967e+02,1.118777423045953441e+02,1.124051123762166497e+02,1.129234768113689995e+02,1.134324753845936442e+02,1.139321080958905981e+02,1.144227351707185960e+02,1.149039963836189173e+02,1.153762519600502827e+02,1.158395019000127064e+02,1.162944666544237009e+02,1.167415064487420295e+02,1.171802610575089432e+02,1.176121713825594384e+02,1.180368771984347802e+02,1.184547387305937320e+02,1.188668366554125697e+02,1.192735311983500281e+02,1.196744621339473582e+02,1.200710703640396133e+02,1.204637161140855142e+02,1.208520391586263401e+02,1.212371201740383242e+02,1.216193193857802584e+02,1.219989970193109059e+02,1.223765133000889875e+02,1.227518682281145317e+02,1.231254220288462875e+02,1.234978951532017533e+02,1.238689273757222082e+02,1.242388789218663732e+02
1.246081100170930398e+02,1.249762964584893155e+02,1.253440146067891874e+02,1.257111924169009143e+02,1.260778659113704094e+02,1.264441431578352564e+02,1.268100241562954693e+02,1.271755089067510340e+02,1.275406334317478496e+02,1.279053977312859303e+02,1.282697621805647827e+02,1.286337231773298129e+02,1.289972410967805558e+02,1.293602763141165894e+02,1.297228072158103771e+02,1.300847617567701207e+02,1.304460318693582224e+02,1.308066535761205955e+02,1.311664467643277590e+02,1.315254114339798548e+02,1.318833674723474019e+02,1.322402068117927740e+02,1.325961095650453956e+02,1.329505714164630206e+02,1.333039525915042987e+02,1.336555326392518452e+02,1.340056717851643384e+02,1.343543700292418066e+02,1.347012671460255149e+02,1.350463631355153780e+02,1.353892977722527462e+02,1.357304312816963261e+02,1.360694034383873259e+02,1.364062142423257740e+02,1.367408636935116988e+02,1.370726313410275452e+02,1.374022376357908684e+02,1.377293223523428765e+02,1.380538854906835695e+02,1.383752065998954777e+02,1.386940061308960424e+02,1.390095636327677937e+02,1.393222393309694951e+02,1.396313127745836198e+02,1.399371441890689312e+02,1.402393733489666374e+02,1.405376400288180321e+02,1.408323044540818216e+02,1.411226461738405646e+02,1.414090254135529392e+02,1.416910819477602672e+02,1.419684555510036716e+02,1.422411462232832662e+02,1.425087937391402590e+02
1.427713980985746218e+02,1.430289593015864114e+02,1.432807568972580725e+02,1.435271511110483118e+02,1.437677817174984796e+02,1.440022884911497556e+02,1.442306714320021399e+02,1.444529305400556609e+02,1.446687055898515268e+02,1.448776363559309743e+02,1.450800830637528236e+02,1.452753252623995195e+02,1.454637231773297970e+02,1.456449165830849495e+02,1.458185452542061284e+02,1.459842489652347126e+02,1.461427481670881150e+02,1.462933224088488089e+02,1.464356114650581162e+02,1.465703357866335068e+02,1.466964146971987191e+02,1.468142084222124879e+02,1.469237169616748133e+02,1.470245800901270172e+02,1.471167978075689859e+02,1.472003701140007479e+02,1.472752970094223599e+02,1.473412182683750302e+02,1.473984941163174938e+02,1.474467643277910440e+02,1.474860289027956242e+02,1.475162878413312626e+02,1.475375411433979878e+02,1.475501490344545061e+02,1.475537512890420828e+02,1.475483479071606894e+02,1.475339388888103827e+02,1.475108844594498976e+02,1.474788243936204708e+02,1.474384791422396006e+02,1.473891282543898171e+02,1.473314921809885618e+02,1.472648504711183932e+02,1.471902838011555446e+02,1.471074319456412809e+02,1.470162949045755738e+02,1.469172329034171867e+02,1.468102459421661479e+02,1.466953340208224290e+02,1.465728573648448219e+02,1.464431761996920329e+02,1.463059302999053557e+02,1.461618401164022316e+02,1.460105454237240394e+02
1.458527666727881353e+02,1.456881436381358697e+02,1.455173967706847122e+02,1.453405260704346915e+02,1.451575315373857507e+02,1.449687733969967098e+02,1.447746118747263040e+02,1.445754071960332681e+02,1.443707991354588671e+02,1.441615081439206563e+02,1.439475342214185787e+02,1.437292375934113977e+02,1.435066182598991134e+02,1.432800364463405174e+02,1.430498523781943447e+02,1.428160660554605954e+02,1.425790377035980327e+02,1.423391275480653633e+02,1.420963355888626722e+02,1.418506618259899028e+02,1.416028267103645817e+02,1.413528302419867373e+02,1.411010326463151046e+02,1.408474339233496835e+02,1.405923942985492090e+02,1.403359137719137095e+02,1.400787127943607118e+02,1.398204311404314240e+02,1.395614290355846094e+02,1.393020667052790600e+02,1.390427043749735105e+02,1.387829818192091693e+02,1.385232592634448849e+02,1.382642571585980704e+02,1.380056152792100193e+02,1.377473336252807599e+02,1.374901326477277337e+02,1.372340123465509976e+02,1.369793329472092864e+02,1.367253739987851304e+02,1.364732161776547059e+02,1.362228594838180982e+02,1.359739436918165154e+02,1.357271892525674843e+02,1.354825961660710050e+02,1.352398042068683139e+02,1.349995338258768811e+02,1.347617850230967917e+02,1.345261975730692541e+02,1.342934919267117664e+02,1.340633078585655937e+02,1.338360055940894711e+02,1.336115851332834268e+02,1.333904067016061674e+02
1.331717498481402515e+02,1.329566952492618839e+02,1.327445224540535946e+02,1.325359519134328821e+02,1.323302631764822195e+02,1.321280326039356225e+02,1.319291521281554651e+02,1.317336937942335737e+02,1.315416215796239499e+02,1.313529715068725352e+02,1.311677795985251862e+02,1.309860098320360464e+02,1.308076982299509723e+02,1.306328087697241074e+02,1.304613774739013081e+02,1.302933322973908332e+02,1.301286732401926827e+02,1.299674003023068565e+02,1.298094414386415849e+02,1.296547966491968964e+02,1.295034299114269345e+02,1.293552691802398726e+02,1.292103144556357677e+02,1.290684576699769650e+02,1.289296988232635215e+02,1.287939730749127420e+02,1.286612047775784333e+02,1.285313395372162404e+02,1.284043135939199374e+02,1.282800646286852384e+02,1.281585281611549760e+02,1.280396177372190607e+02,1.279232649140403026e+02,1.278094336690728596e+02,1.276979799121332348e+02,1.275889036432213857e+02,1.274820967946997285e+02,1.273774512989306231e+02,1.272749311333681703e+02,1.271745002754665279e+02,1.270759786124963000e+02,1.269794021670033288e+02,1.268845908262583180e+02,1.267915806128070670e+02,1.267002274364661218e+02,1.266104952746895691e+02,1.265222760598397969e+02,1.264355337693709345e+02,1.263501963581912406e+02,1.262661917812089456e+02,1.261834479933322939e+02,1.261018929494695300e+02,1.260214906270748259e+02,1.259421329585104985e+02
1.258638199437765763e+02,1.257864074926895341e+02,1.257099316277952852e+02,1.256342482589102900e+02,1.255593213634886780e+02,1.254851509415304633e+02,1.254115929028521350e+02,1.253386832699995779e+02,1.252663139753351516e+02,1.251944850188588561e+02,1.251231243554789643e+02,1.250522319851954478e+02,1.249816998403706663e+02,1.249114198533670361e+02,1.248418963398268033e+02,1.247723728262865563e+02,1.247032095382051011e+02,1.246344064755823666e+02,1.245656034129596321e+02,1.244971605757956752e+02,1.244290779640904674e+02,1.243613555778439945e+02,1.242936331915975643e+02,1.242262710308098548e+02,1.241592690954809228e+02,1.240922671601519909e+02,1.240256254502818223e+02,1.239589837404116395e+02,1.238930624814589834e+02,1.238271412225063131e+02,1.237619404144711694e+02,1.236967396064360258e+02,1.236318990238596314e+02,1.235674186667420145e+02,1.235036587605418958e+02,1.234402590798005264e+02,1.233772196245179202e+02,1.233149006201528408e+02,1.232529418412465105e+02,1.231917035132576927e+02,1.231311856361864159e+02,1.230713882100326231e+02,1.230123112347963570e+02,1.229539547104776034e+02,1.228966788625351256e+02,1.228404836909689237e+02,1.227850089703202485e+02,1.227306149260478350e+02,1.226773015581516830e+02,1.226250688666318212e+02,1.225739168514882351e+02,1.225242057381796599e+02,1.224755753012473605e+02,1.224283857661501003e+02
1.223826371328878793e+02,1.223383294014606548e+02,1.222954625718684980e+02,1.222540366441113804e+02,1.222144118436480227e+02,1.221762279450196900e+02,1.221398451736851740e+02,1.221052635296444322e+02,1.220721227874387154e+02,1.220411433979855644e+02,1.220119651358261876e+02,1.219849482264193625e+02,1.219597324443063258e+02,1.219366780149458265e+02,1.219157849383378789e+02,1.218966929890237054e+02,1.218801226179208470e+02,1.218657135995705545e+02,1.218534659339727995e+02,1.218437398465863311e+02,1.218365353374111777e+02,1.218314921809885618e+02,1.218289706027772610e+02,1.218293308282360101e+02,1.218318524064473252e+02,1.218368955628699268e+02,1.218444602975038435e+02,1.218549068358078387e+02,1.218678749523230920e+02,1.218837248725084379e+02,1.219017361454463213e+02,1.219229894475130322e+02,1.219467643277910298e+02,1.219730607862803566e+02,1.220022390484397334e+02,1.220339388888104111e+02,1.220685205328511387e+02,1.221056237551031813e+02,1.221456087810252882e+02,1.221884756106174734e+02,1.222338640184209453e+02,1.222817740044357180e+02,1.223325657941205549e+02,1.223858791620166926e+02,1.224417141081241454e+02,1.225000706324428990e+02,1.225613089604317025e+02,1.226250688666318212e+02,1.226909901255844773e+02,1.227597931882071975e+02,1.228307576035824695e+02,1.229038833717102932e+02,1.229795307180494035e+02,1.230576996425998288e+02
1.231376696944440567e+02,1.232201613244995571e+02,1.233048143073076375e+02,1.233912684174094778e+02,1.234798838802638841e+02,1.235703004704120787e+02,1.236628784133128107e+02,1.237572574835073311e+02,1.238530774555368623e+02,1.239510587803189736e+02,1.240504810069360957e+02,1.241517043608470203e+02,1.242547288420517333e+02,1.243591942250914570e+02,1.244651005099662342e+02,1.245724476966760363e+02,1.246812357852208493e+02,1.247914647756007298e+02,1.249031346678156069e+02,1.250158131913150328e+02,1.251296804588283464e+02,1.252445923801720511e+02,1.253604769102544054e+02,1.254771899588919126e+02,1.255946594809928030e+02,1.257127774089194645e+02,1.258313636299425013e+02,1.259503460989701722e+02,1.260695086807272247e+02,1.261887072850301479e+02,1.263078338442413298e+02,1.264266722230854896e+02,1.265450783313791732e+02,1.266628720563929562e+02,1.267798372628515580e+02,1.268958658831174233e+02,1.270107057593693867e+02,1.271241767788780663e+02,1.272361708740058361e+02,1.273463998643857167e+02,1.274547196598341543e+02,1.275609141250759251e+02,1.276648391699275180e+02,1.277662066140219679e+02,1.278649083897215633e+02,1.279606563166593531e+02,1.280533063046518407e+02,1.281426782409696443e+02,1.282285667971012231e+02,1.283108026670810204e+02,1.283892453629801196e+02,1.284637543968695752e+02,1.285342166579553407e+02,1.286005464125782396e+02
1.286626708951955891e+02,1.287205591264179532e+02,1.287741894927177952e+02,1.288235836076226519e+02,1.288687846981875680e+02,1.289098720140134731e+02,1.289469536227379933e+02,1.289802384551271928e+02,1.290098129652912178e+02,1.290359653335970336e+02,1.290589477178657773e+02,1.290790122759185579e+02,1.290964471881224256e+02,1.291115766573902874e+02,1.291247248866349082e+02,1.291362160787692801e+02,1.291463744367062532e+02,1.291554881408128210e+02,1.291639174165477755e+02,1.291719504442780533e+02,1.291798754043707333e+02,1.291879804771927525e+02,1.291965898656571028e+02,1.292059557275847794e+02,1.292163302207970332e+02,1.292279655031148877e+02,1.292410416872677956e+02,1.292557388859850960e+02,1.292722011894503282e+02,1.292905366653010901e+02,1.293108173586291798e+02,1.293330792919803685e+02,1.293573584879006546e+02,1.293836909689358379e+02,1.294121127576318315e+02,1.294425878314427223e+02,1.294751882354603083e+02,1.295098059020469350e+02,1.295464768537484588e+02,1.295850209778355406e+02,1.296252941841246411e+02,1.296670443147946514e+02,1.297098751218409518e+02,1.297534984248965202e+02,1.297974459308649386e+02,1.298413574142875291e+02,1.298847645820678167e+02,1.299273792538388648e+02,1.299688412041418815e+02,1.300089342977016145e+02,1.300474063766969266e+02,1.300841493734902485e+02,1.301190191978979840e+02,1.301520158499201898e+02
1.301831753521026940e+02,1.302126778171749777e+02,1.302409915382333452e+02,1.302688729887411796e+02,1.302973307999830297e+02,1.303275897385186965e+02,1.303611627512748896e+02,1.303997428979078563e+02,1.304449872155278172e+02,1.304986968314286173e+02,1.305623126474452249e+02,1.306371674977750672e+02,1.307242700137026929e+02,1.308243046235997156e+02,1.309378476882001507e+02,1.310653314780544747e+02,1.312069000833462553e+02,1.313625174815296077e+02,1.315317874245998837e+02,1.317139174165477868e+02,1.319078628035429119e+02,1.321122187062961473e+02,1.323252200200596178e+02,1.325449575499018238e+02,1.327693780107078680e+02,1.329974007261015174e+02,1.332272245687889267e+02,1.334592097642288877e+02,1.336940767633389271e+02,1.339329062424953065e+02,1.341782197799092842e+02,1.344328991792509953e+02,1.346998262441904615e+02,1.349822430038565244e+02,1.352837517128367324e+02,1.356075944002599272e+02,1.359577335461724203e+02,1.363366907287855554e+02,1.367480682026868521e+02,1.371940273206289191e+02,1.376770896608229862e+02,1.381976154487279018e+02,1.387545240079673192e+02,1.393452937603299802e+02,1.399648815493932830e+02,1.406064430914407524e+02,1.412620534263797936e+02,1.419223466922827015e+02,1.425772365763042160e+02,1.432173572165166888e+02,1.438329825255336232e+02,1.444151068668861058e+02,1.449565257313989548e+02,1.454500346098970169e+02
1.458909505714164538e+02,1.462745906849934272e+02,1.465987935978753569e+02,1.468635593100622714e+02,1.470710491743067507e+02,1.472255858961138131e+02,1.473347342101174036e+02,1.474078599782451988e+02,1.474557699642599857e+02,1.474889107064657026e+02,1.475170082922487893e+02,1.475476274562431911e+02,1.475858113548715096e+02,1.476351622427213215e+02,1.476953198943338350e+02,1.477630422805803221e+02,1.478318453432030424e+02,1.478916427693568210e+02,1.479301868934439028e+02,1.479327084716551894e+02,1.478808360055940909e+02,1.477522355168175636e+02,1.475224116741301827e+02,1.471654282445012427e+02,1.466575103476529023e+02,1.459824478379408959e+02,1.451330362061902406e+02,1.441103561287770560e+02,1.429273757222167376e+02,1.416111118959160251e+02,1.402001087739620573e+02,1.387455183714983775e+02,1.373035358600912446e+02,1.359299961858480685e+02,1.346782127166650014e+02,1.335986170167681166e+02,1.327365974939609146e+02,1.321324633770783521e+02,1.318204000621565513e+02,1.318274604811481936e+02,1.321782480328864438e+02,1.328997796267781553e+02,1.340226023817259602e+02,1.355787763635592853e+02,1.376014423144838759e+02,1.401248216530816819e+02,1.431849369252284987e+02,1.468174504513413012e+02,1.510522609444970215e+02,1.559019762957521777e+02,1.613579510940965349e+02,1.673823616663605662e+02,1.739024424698752398e+02,1.808007600050855217e+02
1.879188150701379811e+02,1.950368701351904690e+02,2.018991651245249841e+02,2.082139174165477584e+02,2.136821398804898990e+02,2.180084476401700613e+02,2.209154670923448407e+02,2.221870629617596080e+02,2.216683383011484807e+02,2.192908502733475302e+02,2.150870191696450036e+02,2.091793216460184226e+02,2.017766884685473485e+02,1.931600954950627909e+02,1.836501433838590458e+02,1.736106598482815002e+02,1.634000692197940339e+02,1.533577038805464099e+02,1.437793089321787079e+02,1.349008320501772857e+02,1.268891656895845301e+02,1.198412465213521756e+02,1.137901792651400683e+02,1.087099196202799902e+02,1.045244600149740677e+02,1.011232112333837279e+02,9.838153526677872662e+01,9.617623500826398697e+01,9.440176439842348088e+01,9.297563180720167963e+01,9.183948071027984383e+01,9.096053059091102000e+01,9.032653378349743889e+01,8.994469479721425387e+01,8.982221814123663250e+01,8.996270607015212306e+01,9.035174956561047566e+01,9.095692833632344332e+01,9.172781081806493830e+01,9.259523372275353381e+01,9.348571105680260018e+01,9.432107389566175470e+01,9.502783624574439614e+01,9.554872225910804673e+01,9.584518781166566725e+01,9.590030230685557910e+01,9.571694754834790331e+01,9.531601661275055903e+01,9.473065024226926312e+01,9.400407549195496415e+01,9.318132054415232801e+01,9.230777380666486920e+01,9.142161917812090621e+01,9.056068033168995157e+01
8.975377530407266136e+01,8.902611987738207233e+01,8.839572532455606790e+01,8.788420517312012237e+01,8.749155942307419309e+01,8.723219709276864364e+01,8.710251592761586892e+01,8.710251592761586892e+01,8.722499258359349028e+01,8.745913913178601717e+01,8.779414880843069113e+01,8.820840808600205207e+01,8.868750794614980748e+01,8.921343711593608816e+01,8.976818432242295387e+01,9.033734054726016893e+01,9.089929226292220221e+01,9.143963045105877541e+01,9.194754834790714426e+01,9.241584144429218384e+01,9.283406320190991323e+01,9.319753068979643729e+01,9.350372232974048359e+01,9.375191767082456806e+01,9.394499851671869806e+01,9.408584667109298039e+01,9.418022574128750080e+01,9.423389933464237345e+01,9.425335150941529605e+01,9.424578677478140776e+01,9.421768918899829259e+01,9.417626326124114655e+01,9.412763282430884715e+01,9.407720126008277362e+01,9.403037195044426255e+01,9.399074714998091906e+01,9.396264956419781811e+01,9.394824054584749717e+01,9.395040189860006308e+01,9.397057452429049818e+01,9.401019932475382745e+01,9.406963652544887111e+01,9.414996680275183394e+01,9.425082993120399522e+01,9.437330658718161658e+01,9.451667631976718553e+01,9.468165957987821457e+01,9.486753591659720541e+01,9.507502578084165634e+01,9.530376894715280400e+01,9.555412564098942596e+01,9.582573563689273044e+01,9.611931938578025836e+01,9.643451666219327478e+01
9.677132746613175129e+01,9.713011202305443703e+01,9.751051010750255443e+01,9.791252171947617455e+01,9.833506618259899312e+01,9.877814349687098172e+01,9.924067298591586450e+01,9.972193419881618581e+01,1.002204862337368922e+02,1.007356086397604145e+02,1.012658605150517559e+02,1.018094407323171424e+02,1.023656288406390757e+02,1.029326237127237391e+02,1.035086242212773158e+02,1.040921894644648233e+02,1.046822387659099576e+02,1.052766107728601810e+02,1.058738645834804828e+02,1.064729195213945587e+02,1.070723346847673980e+02,1.076703089463051981e+02,1.082657616296317116e+02,1.088583325092881608e+02,1.094462204579807576e+02,1.100287050247919751e+02,1.106054259842630927e+02,1.111756628854765694e+02,1.117386952775148643e+02,1.122945231603780201e+02,1.128420658576897324e+02,1.133816835949088073e+02,1.139133763720352022e+02,1.144367839636101678e+02,1.149519063696336900e+02,1.154594640410233097e+02,1.159590967523202778e+02,1.164511647289833007e+02,1.169363884219299621e+02,1.174151280566189541e+02,1.178873836330503337e+02,1.183542358276003341e+02,1.188156846402689553e+02,1.192724505219737381e+02,1.197248936981734460e+02,1.201737346197855629e+02,1.206193335122688381e+02,1.210620506010820918e+02,1.215026063371427654e+02,1.219417211713684281e+02,1.223790348783003026e+02,1.228156281343146503e+02,1.232518611648702489e+02,1.236877339699670841e+02
1.241236067750639194e+02,1.245602000310782529e+02,1.249968653321843703e+02,1.254344311969373678e+02,1.258728616027913887e+02,1.263122646173840451e+02,1.267527122858071067e+02,1.271942406306064299e+02,1.276369216968737987e+02,1.280806474169715727e+02,1.285254285976634776e+02,1.289711967961123946e+02,1.294178403424261035e+02,1.298652403622031386e+02,1.303132887878060160e+02,1.307618055065052260e+02,1.312106824506632279e+02,1.316597034850047123e+02,1.321086884968003403e+02,1.325575654409583422e+02,1.330056859116529324e+02,1.334534461568887878e+02,1.339004859512071164e+02,1.343464450691491265e+02,1.347909632852561685e+02,1.352336803740693938e+02,1.356749565610476225e+02,1.361144316207320344e+02,1.365513851022051597e+02,1.369861772309256764e+02,1.374180875559762001e+02,1.378471160773566453e+02,1.382732627950670121e+02,1.386958072581898307e+02,1.391147494667250442e+02,1.395304496461314443e+02,1.399418271200327410e+02,1.403492421138877262e+02,1.407523344022376364e+02,1.411507437596236514e+02,1.415448304115046199e+02,1.419338739069629582e+02,1.423178742459986665e+02,1.426968314286118016e+02,1.430703852293435432e+02,1.434385356481939198e+02,1.438009224597041964e+02,1.441575456638743447e+02,1.445084052607043361e+02,1.448527807992767293e+02,1.451906722795914391e+02,1.455224399271073423e+02,1.458473632909067987e+02,1.461658025964486001e+02
1.464770373928152765e+02,1.467814279054655344e+02,1.470782536834819041e+02,1.473678749523230920e+02,1.476499314865303631e+02,1.479244232861037744e+02,1.481909901255844773e+02,1.484499922304312634e+02,1.487007091497266345e+02,1.489435011089293539e+02,1.491780078825806299e+02,1.494042294706804910e+02,1.496218056477701452e+02,1.498310966393083561e+02,1.500321024452951804e+02,1.502241026148130345e+02,1.504074573733207103e+02,1.505821667208181793e+02,1.507478704318467635e+02,1.509049287318651125e+02,1.510526211699557848e+02,1.511916681970362504e+02,1.513217095876477742e+02,1.514427453417903848e+02,1.515547754594640253e+02,1.516577999406687240e+02,1.517518187854045095e+02,1.518368319936713249e+02,1.519128395654691985e+02,1.519794812753393671e+02,1.520378377996581207e+02,1.520868284620491693e+02,1.521271737134300395e+02,1.521585133283419680e+02,1.521815677577024530e+02,1.521959767760527598e+02,1.522017403833928881e+02,1.521988585797228382e+02,1.521880518159600797e+02,1.521689598666459631e+02,1.521415827317803462e+02,1.521062806368221061e+02,1.520634138072299208e+02,1.520129822430038473e+02,1.519546257186850937e+02,1.518894249106499501e+02,1.518166593679808898e+02,1.517370495415954395e+02,1.516505954314935991e+02,1.515572970376753403e+02,1.514575145855994549e+02,1.513516083007246777e+02,1.512392179575922739e+02,1.511210640071197417e+02
1.509971464493070812e+02,1.508678255096130840e+02,1.507327409625789301e+02,1.505929734845809378e+02,1.504478026247015805e+02,1.502979488338583565e+02,1.501437723375100575e+02,1.499849129101979202e+02,1.498220910028394144e+02,1.496549463899758337e+02,1.494841995225247047e+02,1.493098504004859706e+02,1.491318990238596314e+02,1.489507056181045073e+02,1.487666304086793332e+02,1.485793131701252889e+02,1.483894743533599865e+02,1.481967537329246056e+02,1.480018717597366731e+02,1.478048284337962173e+02,1.476052635296444464e+02,1.474038974981988588e+02,1.472007303394595112e+02,1.469957620534263754e+02,1.467893528655582145e+02,1.465811425503962084e+02,1.463718515588579976e+02,1.461611196654847333e+02,1.459496673211939992e+02,1.457367740750681548e+02,1.455231603780248122e+02,1.453088262300639997e+02,1.450934114057268971e+02,1.448776363559309743e+02,1.446611408552176101e+02,1.444442851290454541e+02,1.442270691774145632e+02,1.440098532257836723e+02,1.437919168232352263e+02,1.435739804206868371e+02,1.433556837926796561e+02,1.431373871646724751e+02,1.429194507621240575e+02,1.427011541341168765e+02,1.424828575061096956e+02,1.422649211035612780e+02,1.420469847010128603e+02,1.418294085239232061e+02,1.416118323468335518e+02,1.413946163952026609e+02,1.411777606690305049e+02,1.409609049428583774e+02,1.407444094421449563e+02,1.405282741668903270e+02
1.403128593425532245e+02,1.400974445182160935e+02,1.398823899193377258e+02,1.396680557713769133e+02,1.394537216234160724e+02,1.392401079263727581e+02,1.390268544547881788e+02,1.388139612086623345e+02,1.386014281879953103e+02,1.383892553927870210e+02,1.381778030484962301e+02,1.379667109296642025e+02,1.377559790362909382e+02,1.375456073683764373e+02,1.373359561513794347e+02,1.371266651598411954e+02,1.369177343937617479e+02,1.367091638531410354e+02,1.365013137634378495e+02,1.362938238991933702e+02,1.360866942604076826e+02,1.358802850725395217e+02,1.356742361101300958e+02,1.354685473731794332e+02,1.352635790871462973e+02,1.350589710265719248e+02,1.348547231914562872e+02,1.346511958072581763e+02,1.344483888739775921e+02,1.342459421661557428e+02,1.340442159092514203e+02,1.338432101032646244e+02,1.336425645227365919e+02,1.334429996185847926e+02,1.332437949398917851e+02,1.330453107121162759e+02,1.328475469352582934e+02,1.326508638347765725e+02,1.324545409597536150e+02,1.322592987611069759e+02,1.320649211035612609e+02,1.318714440096624969e+02,1.316788674794106271e+02,1.314872635578973927e+02,1.312966682676687071e+02,1.311070816087245134e+02,1.309186116487024663e+02,1.307312223650567091e+02,1.305449858028789833e+02,1.303599019621692605e+02,1.301760789105651668e+02,1.299935166480667874e+02,1.298122151746740371e+02,1.296322825580245421e+02
1.294537187981183308e+02,1.292765599175012881e+02,1.291008419387192987e+02,1.289266369068640756e+02,1.287539556286993729e+02,1.285828370085747849e+02,1.284133192303888791e+02,1.282454397575894518e+02,1.280792425376824326e+02,1.279147275706677647e+02,1.277519777084010002e+02,1.275910289734280809e+02,1.274318813657489216e+02,1.272745709079094212e+02,1.271191336224554504e+02,1.269656055319329084e+02,1.268140226588876658e+02,1.266644210258655789e+02,1.265168366554125612e+02,1.263712695475285557e+02,1.262277917473053606e+02,1.260863672321970910e+02,1.259471040698413447e+02,1.258099662376922936e+02,1.256749897582957800e+02,1.255422106541976746e+02,1.254116289253980057e+02,1.252833166169885004e+02,1.251572377064233166e+02,1.250334282162482964e+02,1.249117800788257995e+02,1.247925454519769914e+02,1.246758324033394985e+02,1.245612807074545429e+02,1.244488903643221249e+02,1.243390215994010219e+02,1.242313141872324707e+02,1.241261283532752060e+02,1.240234640975292706e+02,1.239229611945358727e+02,1.238246196442950122e+02,1.237287996722654668e+02,1.236351410529884589e+02,1.235440040119227660e+02,1.234550283236095964e+02,1.233685742135077561e+02,1.232839212306996899e+02,1.232021500515616736e+02,1.231221799997174600e+02,1.230447315260845613e+02,1.229694444052042002e+02,1.228963186370763765e+02,1.228253542217011045e+02,1.227565511590783842e+02
1.226899094492082156e+02,1.226250688666318212e+02,1.225627498622667417e+02,1.225022319851954364e+02,1.224438754608766828e+02,1.223876802893104809e+02,1.223332862450380816e+02,1.222806933280594279e+02,1.222299015383745910e+02,1.221812711014423058e+02,1.221344417918038232e+02,1.220894136094590863e+02,1.220461865544081661e+02,1.220047606266510201e+02,1.219647756007289274e+02,1.219265917021006089e+02,1.218898487053073154e+02,1.218549068358078387e+02,1.218217660936021076e+02,1.217897060277726666e+02,1.217594470892370282e+02,1.217302688270776514e+02,1.217028916922120629e+02,1.216765952337227503e+02,1.216517396770684769e+02,1.216279647967904651e+02,1.216056308183474783e+02,1.215843775162807816e+02,1.215642048905903465e+02,1.215451129412761730e+02,1.215271016683383039e+02,1.215101710717766821e+02,1.214939609261325870e+02,1.214791916823235169e+02,1.214647826639732244e+02,1.214514543219991793e+02,1.214388464309426467e+02,1.214269589908036551e+02,1.214157920015821617e+02,1.214053454632781808e+02,1.213952591504329916e+02,1.213858932885052724e+02,1.213772478774950798e+02,1.213686024664849157e+02,1.213606775063922356e+02,1.213534729972170823e+02,1.213462684880419147e+02,1.213394242043255247e+02,1.213329401460678838e+02,1.213264560878102287e+02,1.213203322550113654e+02,1.213145686476712513e+02,1.213088050403311229e+02,1.213034016584497579e+02
1.212976380511096295e+02,1.212922346692282645e+02,1.212868312873469137e+02,1.212814279054655344e+02,1.212760245235841694e+02,1.212706211417028044e+02,1.212648575343626760e+02,1.212594541524813252e+02,1.212536905451411826e+02,1.212475667123423193e+02,1.212414428795434276e+02,1.212353190467445643e+02,1.212288349884869092e+02,1.212223509302292683e+02,1.212155066465128783e+02,1.212083021373377107e+02,1.212007374027038082e+02,1.211931726680698915e+02,1.211852477079772399e+02,1.211769625224258107e+02,1.211683171114156181e+02,1.211593114749466622e+02,1.211503058384777347e+02,1.211405797510912663e+02,1.211308536637048121e+02,1.211204071254008312e+02,1.211099605870968645e+02,1.210987935978753711e+02,1.210872663831951144e+02,1.210757391685148860e+02,1.210634915029171168e+02,1.210508836118605984e+02,1.210379154953453025e+02,1.210245871533712858e+02,1.210108985859384774e+02,1.209968497930469340e+02,1.209824407746966273e+02,1.209676715308875572e+02,1.209525420616197238e+02,1.209370523668931412e+02,1.209212024467078095e+02,1.209046320756049653e+02,1.208880617045021069e+02,1.208711311079404851e+02,1.208538402859201284e+02,1.208361892384409941e+02,1.208185381909618741e+02,1.208001666925652273e+02,1.207817951941685806e+02,1.207630634703131847e+02,1.207439715209990112e+02,1.207248795716848662e+02,1.207054273969119578e+02,1.206856149966802718e+02
1.206658025964486001e+02,1.206459901962169141e+02,1.206258175705264790e+02,1.206052847193773090e+02,1.205847518682281105e+02,1.205642190170789263e+02,1.205433259404709787e+02,1.205227930893217803e+02,1.205019000127138327e+02,1.204810069361058851e+02,1.204597536340391883e+02,1.204388605574312265e+02,1.204179674808232932e+02,1.203970744042153314e+02,1.203758211021486488e+02,1.203549280255407012e+02,1.203340349489327394e+02,1.203135020977835552e+02,1.202926090211755934e+02,1.202720761700264092e+02,1.202515433188772249e+02,1.202313706931867898e+02,1.202111980674963547e+02,1.201913856672646830e+02,1.201715732670329970e+02,1.201517608668013395e+02,1.201323086920284169e+02,1.201132167427142576e+02,1.200944850188588617e+02,1.200757532950034658e+02,1.200573817966067907e+02,1.200393705236689215e+02,1.200217194761898156e+02,1.200044286541694305e+02,1.199874980576078087e+02,1.199709276865049645e+02,1.199547175408608695e+02,1.199388676206755235e+02,1.199233779259489410e+02,1.199086086821398709e+02,1.198938394383308150e+02,1.198801508708980066e+02,1.198664623034652124e+02,1.198534941869499590e+02,1.198408862958934264e+02,1.198289988557544206e+02,1.198178318665329272e+02,1.198070251027702113e+02,1.197969387899249796e+02,1.197872127025385254e+02,1.197785672915283328e+02,1.197702821059769036e+02,1.197627173713430011e+02,1.197558730876266111e+02
1.197497492548277194e+02,1.197439856474875910e+02,1.197393027165237527e+02,1.197353402364774126e+02,1.197320982073485851e+02,1.197299368545960476e+02,1.197281357273022593e+02,1.197274152763847468e+02,1.197274152763847468e+02,1.197281357273022593e+02,1.197299368545960476e+02,1.197324584328073627e+02,1.197360606873949394e+02,1.197403833929000143e+02,1.197454265493226302e+02,1.197519106075802711e+02,1.197587548912966611e+02,1.197666798513893411e+02,1.197756854878582828e+02,1.197857718007034862e+02,1.197965785644662020e+02,1.198084660046052221e+02,1.198214341211205181e+02,1.198351226885533123e+02,1.198502521578211173e+02,1.198661020780064774e+02,1.198830326745680708e+02,1.199010439475059684e+02,1.199197756713613643e+02,1.199399482970517994e+02,1.199612015991185103e+02,1.199831753521027196e+02,1.200065900069219538e+02,1.200307251126587431e+02,1.200563011202305432e+02,1.200829578041786192e+02,1.201103349390441934e+02,1.201391529757448069e+02,1.201690516888217104e+02,1.202000310782748613e+02,1.202320911441043023e+02,1.202652318863100191e+02,1.202994533048919834e+02,1.203351156253090153e+02,1.203714983966435454e+02,1.204093220698131006e+02,1.204482264193589316e+02,1.204878512198222751e+02,1.205289169221206578e+02,1.205710633007953163e+02,1.206142903558462507e+02,1.206585980872734467e+02,1.207043467205356677e+02,1.207508158047154012e+02
1.207983655652714390e+02,1.208469960022037384e+02,1.208970673409710486e+02,1.209478591306558997e+02,1.209997315967169840e+02,1.210526847391543868e+02,1.211067185579680370e+02,1.211618330531579772e+02,1.212180282247241649e+02,1.212749438472079078e+02,1.213329401460678838e+02,1.213920171213041357e+02,1.214521747729166918e+02,1.215130528754467321e+02,1.215746514288943274e+02,1.216376908841769051e+02,1.217010905649182746e+02,1.217655709220359057e+02,1.218311319555298127e+02,1.218974134399412321e+02,1.219644153752701499e+02,1.220324979869753719e+02,1.221009408241393430e+02,1.221704643376795758e+02,1.222407083021373353e+02,1.223116727175126073e+02,1.223833575838054060e+02,1.224557629010156745e+02,1.225288886691434982e+02,1.226027348881888344e+02,1.226773015581516830e+02,1.227522284535732808e+02,1.228278757999124053e+02,1.229042435971690566e+02,1.229809716198844285e+02,1.230584200935173413e+02,1.231362287926090175e+02,1.232147579426181920e+02,1.232936473180861441e+02,1.233732571444715802e+02,1.234528669708570590e+02,1.235331972481600076e+02,1.236138877509217480e+02,1.236952987046010008e+02,1.237767096582802395e+02,1.238584808374182415e+02,1.239406122420149927e+02,1.240231038720705214e+02,1.241059557275847709e+02,1.241891678085578263e+02,1.242723798895308391e+02,1.243559521959626437e+02,1.244398847278531832e+02,1.245238172597437512e+02
1.246081100170930398e+02,1.246924027744423427e+02,1.247770557572504089e+02,1.248617087400584893e+02,1.249467219483252904e+02,1.250314469762251264e+02,1.251164241619460569e+02,1.252015094153046277e+02,1.252865946686632128e+02,1.253717519671135250e+02,1.254569092655638514e+02,1.255420665640141777e+02,1.256272238624645041e+02,1.257123811609148163e+02,1.257975024368192862e+02,1.258825876901778571e+02,1.259676008984446582e+02,1.260525780841656172e+02,1.261374832247948063e+02,1.262223163203322542e+02,1.263070413482320618e+02,1.263916943310401422e+02,1.264762032236646974e+02,1.265606400711975112e+02,1.266449688510926705e+02,1.267291535408043472e+02,1.268131941403325271e+02,1.268971266722230951e+02,1.269808790913842387e+02,1.270644874203619139e+02,1.271479516591560781e+02,1.272312357852208606e+02,1.273143397985562757e+02,1.273972636991622949e+02,1.274799714644930759e+02,1.275625351396403460e+02,1.276448466569664504e+02,1.277269780615632300e+02,1.278089293534305995e+02,1.278906284874768602e+02,1.279721114862478686e+02,1.280533783497435820e+02,1.281343930554182009e+02,1.282152060348359157e+02,1.282957740609416533e+02,1.283761007359900645e+02,1.284561860599810643e+02,1.285360210272782524e+02,1.286156038367542749e+02,1.286949326872819199e+02,1.287739985732246453e+02,1.288528014945824793e+02,1.289313198378278855e+02,1.290095968300159655e+02
1.290875856418369949e+02,1.291652502507451743e+02,1.292426627018322165e+02,1.293197869725522366e+02,1.293966230629052347e+02,1.294731349503453828e+02,1.295493586574185088e+02,1.296252941841246411e+02,1.297009415304637798e+02,1.297762646738900116e+02,1.298512636144033650e+02,1.299260103970955811e+02,1.300004329768749471e+02,1.300745673762872627e+02,1.301484135953325847e+02,1.302219356114650566e+02,1.302952414923222477e+02,1.303682231702665604e+02,1.304409526903897643e+02,1.305133940301459177e+02,1.305856192346268472e+02,1.306575562587407546e+02,1.307292771475794098e+02,1.308007819011428410e+02,1.308720344968851066e+02,1.309430709573521199e+02,1.310138912825438808e+02,1.310844954724603895e+02,1.311549195496475591e+02,1.312251274915594195e+02,1.312951553207419124e+02,1.313649670146491815e+02,1.314346346183729111e+02,1.315041221093672732e+02,1.315734294876322679e+02,1.316425567531678666e+02,1.317115399285199544e+02,1.317803790136885596e+02,1.318490379861277972e+02,1.319175888909293803e+02,1.319860317280933373e+02,1.320543304750738116e+02,1.321225931995084011e+02,1.321908559239429621e+02,1.322589385356481841e+02,1.323270211473534061e+02,1.323951037590585997e+02,1.324628261453050584e+02,1.325309087570102804e+02,1.325989913687154740e+02,1.326674342058794309e+02,1.327355168175846529e+02,1.328039596547486099e+02,1.328724024919125952e+02
1.329412055545353155e+02,1.330100086171580358e+02,1.330791719052395194e+02,1.331486954187797380e+02,1.332182189323199850e+02,1.332881026713189669e+02,1.333587068612355040e+02,1.334293110511520126e+02,1.335006356919860480e+02,1.335723205582788466e+02,1.336447258754891152e+02,1.337178516436169389e+02,1.337913376372035259e+02,1.338659043071663461e+02,1.339411914280467215e+02,1.340171989998446236e+02,1.340946474734775222e+02,1.341728163980279476e+02,1.342520659989546346e+02,1.343323962762576116e+02,1.344141674553956136e+02,1.344970193109098773e+02,1.345809518428004310e+02,1.346663252765259813e+02,1.347527793866278500e+02,1.348406743985647438e+02,1.349292898614191358e+02,1.350193462261085813e+02,1.351108434926330233e+02,1.352030612100750204e+02,1.352963596038932508e+02,1.353903784486290078e+02,1.354854779697410549e+02,1.355809377163118654e+02,1.356774781392589091e+02,1.357743787876647446e+02,1.358716396615293149e+02,1.359692607608526771e+02,1.360672420856347742e+02,1.361648631849581079e+02,1.362628445097402050e+02,1.363601053836048038e+02,1.364573662574693742e+02,1.365535464549576830e+02,1.366493664269872568e+02,1.367441057226405121e+02,1.368377643419175342e+02,1.369299820593594745e+02,1.370207588749664467e+02,1.371100947887383370e+02,1.371976295752164674e+02,1.372833632344008095e+02,1.373669355408325998e+02,1.374483464945118669e+02
1.375279563208973173e+02,1.376050445690714525e+02,1.376803316899518279e+02,1.377530972326208882e+02,1.378240616479961602e+02,1.378928647106188805e+02,1.379595064204890491e+02,1.380247072285242211e+02,1.380877466838068131e+02,1.381497054627131433e+02,1.382102233397844202e+02,1.382696605404794354e+02,1.383283772902569524e+02,1.383863735891169426e+02,1.384443698879769329e+02,1.385023661868369231e+02,1.385607227111556767e+02,1.386197996863919286e+02,1.386795971125457356e+02,1.387404752150758043e+02,1.388024339939821061e+02,1.388661939001822532e+02,1.389317549336761317e+02,1.389991170944638554e+02,1.390686406080040740e+02,1.391403254742968443e+02,1.392141716933421662e+02,1.392901792651400399e+02,1.393687084151492286e+02,1.394493989179109690e+02,1.395318905479664693e+02,1.396165435307745497e+02,1.397026374154176267e+02,1.397905324273545489e+02,1.398795081156677043e+02,1.399695644803571213e+02,1.400603412959640366e+02,1.401521987879472420e+02,1.402440562799305042e+02,1.403359137719137095e+02,1.404274110384381800e+02,1.405174674031275970e+02,1.406064430914407524e+02,1.406928972015426211e+02,1.407768297334331464e+02,1.408567997852773601e+02,1.409324471316164704e+02,1.410034115469917424e+02,1.410686123550269144e+02,1.411276893302631663e+02,1.411802822472417915e+02,1.412256706550452918e+02,1.412634943282148186e+02,1.412933930412917221e+02
1.413153667942759455e+02,1.413297758126262522e+02,1.413366200963426422e+02,1.413369803218014056e+02,1.413319371653788039e+02,1.413229315289098622e+02,1.413117645396883404e+02,1.413002373250081405e+02,1.412905112376216721e+02,1.412843874048227804e+02,1.412840271793640170e+02,1.412912316885391704e+02,1.413067213832657387e+02,1.413315769399200406e+02,1.413668790348782807e+02,1.414129878935992508e+02,1.414695432906242445e+02,1.415361850004944131e+02,1.416118323468335518e+02,1.416954046532653138e+02,1.417843803415784976e+02,1.418765980590204663e+02,1.419695362273799617e+02,1.420599528175281421e+02,1.421453262512536924e+02,1.422234951758041461e+02,1.422930186893443647e+02,1.423538967918744333e+02,1.424064897088530870e+02,1.424533190184915554e+02,1.424965460735424756e+02,1.425404935795109509e+02,1.425898444673607344e+02,1.426500021189732763e+02,1.427270903671474400e+02,1.428272330446820888e+02,1.429576346607523760e+02,1.431247792736159568e+02,1.433347907160717227e+02,1.435941530463772438e+02,1.439071889700377085e+02,1.442775007416406368e+02,1.447061690375623186e+02,1.451917529559677291e+02,1.457302900168105282e+02,1.463149359363742974e+02,1.469370453036488868e+02,1.475868920312477712e+02,1.482518682281145459e+02,1.489197262286513421e+02,1.495767774654254367e+02,1.502104140473802261e+02,1.508065871816242804e+02,1.513530492025597027e+02
1.518382728955063783e+02,1.522518117221602267e+02,1.525842998205935999e+02,1.528303338089251326e+02,1.529855909816496933e+02,1.530500713387673102e+02,1.530273771348655885e+02,1.529229117518258647e+02,1.527453206006582889e+02,1.525028888669143612e+02,1.522053426379804932e+02,1.518613273248668349e+02,1.514780474367486534e+02,1.510619870318834899e+02,1.506178290412352112e+02,1.501480950430151324e+02,1.496535054881408087e+02,1.491326194747771581e+02,1.485825551992541023e+02,1.479979092796903331e+02,1.473714772069106687e+02,1.466931726680698773e+02,1.459503877721114975e+02,1.451294339516026355e+02,1.442169828645693315e+02,1.432043891000013787e+02,1.420902117560637805e+02,1.408791337637203469e+02,1.395834027885688329e+02,1.382239119072172002e+02,1.368323609600361408e+02,1.354501758747828148e+02,1.341277882156832106e+02,1.329199522524686188e+02,1.318807018039525758e+02,1.310653314780544747e+02,1.305292439503312778e+02,1.303270494003305657e+02,1.305088912119114468e+02,1.311155469070053243e+02,1.321757264546751571e+02,1.337070448798542373e+02,1.357185438415573060e+02,1.382102233397844202e+02,1.411730777380666382e+02,1.445887355380073132e+02,1.484363036629984833e+02,1.526959697128084770e+02,1.573533246690869873e+02,1.623993628953650727e+02,1.678218367260450066e+02,1.736034553391063469e+02,1.797128791196372219e+02,1.860924719942363765e+02
1.926521775982143936e+02,1.992515080026557541e+02,2.057103504781816525e+02,2.117945584765994624e+02,2.172411674130161430e+02,2.217655991750130795e+02,2.250832756501716574e+02,2.269312322535986937e+02,2.271005382192148261e+02,2.254507056181044788e+02,2.219421096498043369e+02,2.166215796239528970e+02,2.096368079786407463e+02,2.012291457712356362e+02,1.917047846416816128e+02,1.814311545579115261e+02,1.707972990153837429e+02,1.601875785785927064e+02,1.499557346480385434e+02,1.404032759327013764e+02,1.317653215895124958e+02,1.241985336704855172e+02,1.177793159954230049e+02,1.125113788865501618e+02,1.083298817612905935e+02,1.051184717964655420e+02,1.027312576812781515e+02,1.010104606647925607e+02,9.980514627978922704e+01,9.898707426295045764e+01,9.845610193674158950e+01,9.814198533670484892e+01,9.800690078967070917e+01,9.803860063004137260e+01,9.824140756332198521e+01,9.862288632414640688e+01,9.918195623613839018e+01,9.990024580090125994e+01,1.007399313452654894e+02,1.016469790504174284e+02,1.025540267555693674e+02,1.033868680162171927e+02,1.040730975151506641e+02,1.045482348952520795e+02,1.047672519741767729e+02,1.047063738716467327e+02,1.043663210385794429e+02,1.037672661006653385e+02,1.029466725056152683e+02,1.019510093376089515e+02,1.008339501900012749e+02,9.964880843068839056e+01,9.844673607481387023e+01,9.727204085380496679e+01
9.616182598991369446e+01,9.514490951984063827e+01,9.424398564748759100e+01,9.347454406758110679e+01,9.284667109296640319e+01,9.236540988006612451e+01,9.203400245800899881e+01,9.184308296486740630e+01,9.178904914605375609e+01,9.185749198321774145e+01,9.203400245800899881e+01,9.230056929748973005e+01,9.263593919959315315e+01,9.302390201867520148e+01,9.344248400175166580e+01,9.387331365042591358e+01,9.429910014267753127e+01,9.470399355832118715e+01,9.507610645721791798e+01,9.540607297744000448e+01,9.568596815889473817e+01,9.591146929607707250e+01,9.608041503623442736e+01,9.619316560482560874e+01,9.625296303097938733e+01,9.626376979474211737e+01,9.623134950345392724e+01,9.616254644083119274e+01,9.606456511604910986e+01,9.594461003828276091e+01,9.581096639308366036e+01,9.567011823870939224e+01,9.552854963341761163e+01,9.539238441000718183e+01,9.526630549944201221e+01,9.515391515630960839e+01,9.505881563519754707e+01,9.498316828885842256e+01,9.492913447004477234e+01,9.489815508059160720e+01,9.489059034595769049e+01,9.490716071706054890e+01,9.494786619390018245e+01,9.501342722739410362e+01,9.510312336662474308e+01,9.521695461159218610e+01,9.535492096229639003e+01,9.551702241873735488e+01,9.570289875545634573e+01,9.591254997245333414e+01,9.614633629518709768e+01,9.640425772365763635e+01,9.668631425786492173e+01,9.699250589780898224e+01
9.732319286894855281e+01,9.767873539674243943e+01,9.805877325573180769e+01,9.846294622045797951e+01,9.889089406546214889e+01,9.934225656528555248e+01,9.981595304355195708e+01,1.003116232748025709e+02,1.008274661317436340e+02,1.013627611634575914e+02,1.019153470171919196e+02,1.024848634674878838e+02,1.030687889361341547e+02,1.036656825212956647e+02,1.042741033211374457e+02,1.048918899829069460e+02,1.055176016047690979e+02,1.061494370594301415e+02,1.067852349941374968e+02,1.074235545070561670e+02,1.080625944708923640e+02,1.087012742092697977e+02,1.093374323694359163e+02,1.099696280495557232e+02,1.105971407987116635e+02,1.112185297150687262e+02,1.118327141222506356e+02,1.124389735693398649e+02,1.130362273799601667e+02,1.136233948777352509e+02,1.142004760626650892e+02,1.147667504838322401e+02,1.153211374648603424e+02,1.158639972312082449e+02,1.163949695574171130e+02,1.169136942180282119e+02,1.174198109875828067e+02,1.179133198660808830e+02,1.183945810789812043e+02,1.188635946262837280e+02,1.193200002825297759e+02,1.197645184986368037e+02,1.201967890491460480e+02,1.206171721595163007e+02,1.210260280552063108e+02,1.214233567362160642e+02,1.218098786534631017e+02,1.221852335814886601e+02,1.225497817457514458e+02,1.229038833717102932e+02,1.232478986848239089e+02,1.235821879105510845e+02,1.202184025766715081e+02,1.202962112757631701e+02
1.203801438076537238e+02,1.204702001723431550e+02,1.205671008207489621e+02,1.206704855274124526e+02,1.207803542923335556e+02,1.208967071155122852e+02,1.210202644478661966e+02,1.211503058384777347e+02,1.212871915128056486e+02,1.214309214708499667e+02,1.215814957126107174e+02,1.217389142380878155e+02,1.219035372727401096e+02,1.220750045911087796e+02,1.222533161931938537e+02,1.224384720789953178e+02,1.226308324739719353e+02,1.228296769272062079e+02,1.230353656641568563e+02,1.232478986848239089e+02,1.234672759892073515e+02,1.236931373518484349e+02,1.239251225472884244e+02,1.241639520264447754e+02,1.244092655638587814e+02,1.246603427086129159e+02,1.249175436861659279e+02,1.251809405416095728e+02,1.254499929367557058e+02,1.257246288265125855e+02,1.260046680981508445e+02,1.262900026840328280e+02,1.265803444037915284e+02,1.268755491672434914e+02,1.271753287940216666e+02,1.274795391939425571e+02,1.277878561640932702e+02,1.281000995917444811e+02,1.284159380694740378e+02,1.287351410529884674e+02,1.290573987483930978e+02,1.293824662023760936e+02,1.297099831894785780e+02,1.300396975518795273e+02,1.303712130415742365e+02,1.307042775007416537e+02,1.310385307039229019e+02,1.313736124256593314e+02,1.317091624404921788e+02,1.320448925680543653e+02,1.323803345152495581e+02,1.327153441918942178e+02,1.330492731921626159e+02,1.333817612905959891e+02
1.337128084871943372e+02,1.340416943310401621e+02,1.343680585966746150e+02,1.346915410586390465e+02,1.350117814914746646e+02,1.353287798951814409e+02,1.356414555933831423e+02,1.359498085860797403e+02,1.362538388732712349e+02,1.365524657785814213e+02,1.368456893020101859e+02,1.371331492180988505e+02,1.374144853013886234e+02,1.376893373264207696e+02,1.379573450677364974e+02,1.382181482998771003e+02,1.384717470228425213e+02,1.387174207857152908e+02,1.389551695884953801e+02,1.391846332057240545e+02,1.394054514119425221e+02,1.396172639816920764e+02,1.398200709149726606e+02,1.400135119863255397e+02,1.401972269702920073e+02,1.403712158668719781e+02,1.405351184506067170e+02,1.406889347214962811e+02,1.408323044540818216e+02,1.409648674229046890e+02,1.410873440788822961e+02,1.411986537456384383e+02,1.412991566486318504e+02,1.413884925624037692e+02,1.414670217124129579e+02,1.415343838732006532e+02,1.415905790447668551e+02,1.416352470016528002e+02,1.416691081947760154e+02,1.416914421732190021e+02,1.417026091624404671e+02,1.417026091624404671e+02,1.416918023986777655e+02,1.416698286456935136e+02,1.416366879034878252e+02,1.415931006229781133e+02,1.415387065787057281e+02,1.414735057706705845e+02,1.413982186497902092e+02,1.413124849906058671e+02,1.412170252440350851e+02,1.411114791846190712e+02,1.409962070378166175e+02,1.408719292545451935e+02
1.407382856093460930e+02,1.405959965531367573e+02,1.404450620859173000e+02,1.402854822076876360e+02,1.401183375948240553e+02,1.399432680218677945e+02,1.397609939397364087e+02,1.395718755738886045e+02,1.393759129243243819e+02,1.391734662165025611e+02,1.389652559013405835e+02,1.387516422042972408e+02,1.385326251253725900e+02,1.383085648900252806e+02,1.380801819491728963e+02,1.378474763028154086e+02,1.376115286273291076e+02,1.373719786972552299e+02,1.371295469635112738e+02,1.368842334260972677e+02,1.366371187613894733e+02,1.363882029693878906e+02,1.361374860500925195e+02,1.358860486798796501e+02,1.356338908587492256e+02,1.353813728121600661e+02,1.351292149910296985e+02,1.348770571698992740e+02,1.346259800251451111e+02,1.343759835567672951e+02,1.341274279902244757e+02,1.338803133255166813e+02,1.336357202390201735e+02,1.333936487307349807e+02,1.331540988006611315e+02,1.329174306742572753e+02,1.326843648024410527e+02,1.324545409597536150e+02,1.322286795971125457e+02,1.320070688948848101e+02,1.317896728305245233e+02,1.315768156069445638e+02,1.313686773368743559e+02,1.311655462006808932e+02,1.309675662885476299e+02,1.307748816906581624e+02,1.305877085422876291e+02,1.304061549110737701e+02,1.302304009097458390e+02,1.300605185833957478e+02,1.298966880447526933e+02,1.297389453163627024e+02,1.295873624433174598e+02,1.294420835158004763e+02
1.293031085338117521e+02,1.291704735198971434e+02,1.290442144966025637e+02,1.289243818954922176e+02,1.288109288872564946e+02,1.287038590741499320e+02,1.286031400358812959e+02,1.285087321476500506e+02,1.284205777733828597e+02,1.283386120724971420e+02,1.282627557953919109e+02,1.281929296924663220e+02,1.281289896735368359e+02,1.280708853070392195e+02,1.280184364802441053e+02,1.279715351255138529e+02,1.279300731752108220e+02,1.278938344940597887e+02,1.278627110144231409e+02,1.278364866010255838e+02,1.278150531862294912e+02,1.277982306573055098e+02,1.277857668564324882e+02,1.277775537159728287e+02,1.277733751006512364e+02,1.277729788526465740e+02,1.277762569043212864e+02,1.277829570978541938e+02,1.277928993205159145e+02,1.278058314144852972e+02,1.278216092895788876e+02,1.278400168105213908e+02,1.278608018194917406e+02,1.278838202263063408e+02,1.279088198731441253e+02,1.279356206472756980e+02,1.279640064134258068e+02,1.279938330814109690e+02,1.280248484934099906e+02,1.280568725366935610e+02,1.280897611210781406e+02,1.281232981112884488e+02,1.281572673720493469e+02,1.281915968582689231e+02,1.282260272076169656e+02,1.282604359434375283e+02,1.282946645665286951e+02,1.283285545776886067e+02,1.283619654889884032e+02,1.283947496079899508e+02,1.284267772535280869e+02,1.284579187444376771e+02,1.284880443995536154e+02,1.285170425489835964e+02
1.285447943183262680e+02,1.285711948819732129e+02,1.285961433767957942e+02,1.286195447032731067e+02,1.286413095254912378e+02,1.286613524700165101e+02,1.286796014917571824e+02,1.286959917501306734e+02,1.287104512000452132e+02,1.287229294099365688e+02,1.287333831527497239e+02,1.287417619969204168e+02,1.287480407266665452e+02,1.287521869216968753e+02,1.287541861729929735e+02,1.287540204692819543e+02,1.287516862083091951e+02,1.287471905945839126e+02,1.287405336281060499e+02,1.287317369224032007e+02,1.287208148864936561e+02,1.287077999406687354e+02,1.286927173007105694e+02,1.286756101936741743e+02,1.286565182443599724e+02,1.286354882820777163e+02,1.286125671361369598e+02,1.285878178459930155e+02,1.285612935809235751e+02,1.285330581728799473e+02,1.285031774710760146e+02,1.284717189817627059e+02,1.284387547500317623e+02,1.284043604232296047e+02,1.283686080464478891e+02,1.283315732670330078e+02,1.282933389368404562e+02,1.282539843054711639e+02,1.282135886225260890e+02,1.281722167285877561e+02,1.281299983048213562e+02,1.280869513624998035e+02,1.280432199918066374e+02,1.279988041927418010e+02,1.279538480554888338e+02,1.279084236251394771e+02,1.278625669242396441e+02,1.278163860204268900e+02,1.277699169362471565e+02,1.277232317167921565e+02,1.276764384296995161e+02,1.276295370749692637e+02,1.275826357202390113e+02,1.275357343655087448e+02
1.274889410784161328e+02,1.274422558589611469e+02,1.273957867747813992e+02,1.273495338258768896e+02,1.273035330347935314e+02,1.272578204240771811e+02,1.272124680388195799e+02,1.271674758790207420e+02,1.271228799672265382e+02,1.270787523485287096e+02,1.270350570003814141e+02,1.269918659678763504e+02,1.269491792510135753e+02,1.269070328723389025e+02,1.268653908093065183e+02,1.268243611295540063e+02,1.267839078105355384e+02,1.267440308522510577e+02,1.267047302547005785e+02,1.266660420404299998e+02,1.266279662094393217e+02,1.265904667391826450e+02,1.265535796522058547e+02,1.265173049485089507e+02,1.264815705830001775e+02,1.264464125782254342e+02,1.264118309341846924e+02,1.263777896283320814e+02,1.263442526381217306e+02,1.263112199635536541e+02,1.262786555820819530e+02,1.262465594937066413e+02,1.262148956758818485e+02,1.261836281060616756e+02,1.261527207617002517e+02,1.261221376202517206e+02,1.260918786817160964e+02,1.260619079235474516e+02,1.260321533006540591e+02,1.260026508355817896e+02,1.259732564381471605e+02,1.259440421534418988e+02,1.259148638912825362e+02,1.258857576742149149e+02,1.258566874796931785e+02,1.258275452400796723e+02,1.257983309553744249e+02,1.257689725804856664e+02,1.257394701154133969e+02,1.257097515150658893e+02,1.256797807568972445e+02,1.256495218183616061e+02,1.256189026543672043e+02,1.255879592874599098e+02
1.255565476274562258e+02,1.255247036969020513e+02,1.254923914732514874e+02,1.254595389114127926e+02,1.254261460113859386e+02,1.253921767506250973e+02,1.253575951065843554e+02,1.253223650567178424e+02,1.252864866010255867e+02,1.252499597395075313e+02,1.252127484496178766e+02,1.251747806862647963e+02,1.251361284945401167e+02,1.250967198293520113e+02,1.250565546907005370e+02,1.250156330785856511e+02,1.249739189704614972e+02,1.249315924790574712e+02,1.248880051985477877e+02,1.248440576925793408e+02,1.247993897356933815e+02,1.247536411024311604e+02,1.247071720182514269e+02,1.246599824831541667e+02,1.246117122716806165e+02,1.245630818347483313e+02,1.245133707214397703e+02,1.244629391572136825e+02,1.244117871420700965e+02,1.243599146760089695e+02,1.243069615335715810e+02,1.242536481656754432e+02,1.241996143468617930e+02,1.241448600771306303e+02,1.240893853564819267e+02,1.240335504103745023e+02,1.239766347878907595e+02,1.239193589399482960e+02,1.238617228665470691e+02,1.238033663422283155e+02,1.237446495924507985e+02,1.236852123917557833e+02,1.236254149656020047e+02,1.235652573139894486e+02,1.235047394369181575e+02,1.234438613343881173e+02,1.233826230063992995e+02,1.233210244529517183e+02,1.232594258995041656e+02,1.231974671205978353e+02,1.231355083416914908e+02,1.230731893373264256e+02,1.230108703329613320e+02,1.229485513285962526e+02
1.228865925496899081e+02,1.228242735453248287e+02,1.227623147664185126e+02,1.227003559875121823e+02,1.226387574340646012e+02,1.225771588806170485e+02,1.225162807780870082e+02,1.224554026755569254e+02,1.223952450239444119e+02,1.223358078232493682e+02,1.222767308480131021e+02,1.222180140982355852e+02,1.221603780248343583e+02,1.221034624023506439e+02,1.220472672307844419e+02,1.219917925101357525e+02,1.219373984658633248e+02,1.218840850979672012e+02,1.218318524064473252e+02,1.217807003913037249e+02,1.217306290525364005e+02,1.216816383901453662e+02,1.216340886295893284e+02,1.215879797708683441e+02,1.215433118139823989e+02,1.215000847589314787e+02,1.214582986057155694e+02,1.214179533543347134e+02,1.213794092302476315e+02,1.213426662334543380e+02,1.213077243639548328e+02,1.212742233962903953e+02,1.212432440068372159e+02,1.212137055192190900e+02,1.211863283843534873e+02,1.211614728276992281e+02,1.211384183983387288e+02,1.211175253217307670e+02,1.210991538233341203e+02,1.210829436776900394e+02,1.210692551102572310e+02,1.210577278955769884e+02,1.210490824845668101e+02,1.210429586517679184e+02,1.210393563971803417e+02,1.210382757208040658e+02,1.210400768480978542e+02,1.210447597790617209e+02,1.210523245136956376e+02,1.210627710519996043e+02,1.210760993939736352e+02,1.210923095396177303e+02,1.211117617143906529e+02,1.211344559182924030e+02
1.211603921513229380e+02,1.211895704134823148e+02,1.212219907047705192e+02,1.212580132506462860e+02,1.212976380511096295e+02,1.213408651061605639e+02,1.213873341903403116e+02,1.214377657545663709e+02,1.214921597988387987e+02,1.215501560976987889e+02,1.216117546511463559e+02,1.216773156846402628e+02,1.217468391981804956e+02,1.218199649663083335e+02,1.218970532144824688e+02,1.219777437172441950e+02,1.220623967000522612e+02,1.221506519374479041e+02,1.222428696548898870e+02,1.223383294014606548e+02,1.224373914026190420e+02,1.225396954329062424e+02,1.226456017177810054e+02,1.227547500317845959e+02,1.228667801494582363e+02,1.229816920708019552e+02,1.230998460212744874e+02,1.232201613244995571e+02,1.233433584313947051e+02,1.234690771165011398e+02,1.235965969289013771e+02,1.237262780940541518e+02,1.238581206119594782e+02,1.239914040316998438e+02,1.241261283532752060e+02,1.242619333512268724e+02,1.243988190255548147e+02,1.245367853762590187e+02,1.246754721778807351e+02,1.248145192049612291e+02,1.249539264575004438e+02,1.250935498453149393e+02,1.252332092556753054e+02,1.253727966209439302e+02,1.255122038734831591e+02,1.256513589682012650e+02,1.257902619050982338e+02,1.259288406390823383e+02,1.260670951701535500e+02,1.262050254983118833e+02,1.263427396911949501e+02,1.264802737713486493e+02,1.266177358064105931e+02,1.267552698865643066e+02
